# total charge: 11.000000 
# r(A)     rho (e/A^3)     4*pi*r^2*rho(e/A)  dip  
 0.0000   -9.8018258E-01   -0.0000000E+00    8.7767302E+01
 0.0100   -9.7272199E-01   -1.2223585E-03    8.7330783E+01
 0.0200   -9.6330327E-01   -4.8420904E-03    8.6034235E+01
 0.0300   -9.5154018E-01   -1.0761666E-02    8.3916081E+01
 0.0400   -9.3702903E-01   -1.8840086E-02    8.1038271E+01
 0.0500   -9.1933545E-01   -2.8881775E-02    7.7483254E+01
 0.0600   -8.9798635E-01   -4.0623946E-02    7.3350037E+01
 0.0700   -8.7251141E-01   -5.3725078E-02    6.8749590E+01
 0.0800   -8.4254349E-01   -6.7761368E-02    6.3799903E+01
 0.0900   -8.0792064E-01   -8.2236305E-02    5.8620991E+01
 0.1000   -7.6871635E-01   -9.6599746E-02    5.3330159E+01
 0.1100   -7.2518170E-01   -1.1026611E-01    4.8037745E+01
 0.1200   -6.7764607E-01   -1.2262394E-01    4.2843556E+01
 0.1300   -6.2643503E-01   -1.3303705E-01    3.7834127E+01
 0.1400   -5.7183474E-01   -1.4084339E-01    3.3080886E+01
 0.1500   -5.1410005E-01   -1.4535837E-01    2.8639229E+01
 0.1600   -4.5348542E-01   -1.4588585E-01    2.4548469E+01
 0.1700   -3.9027110E-01   -1.4173402E-01    2.0832531E+01
 0.1800   -3.2476253E-01   -1.3222720E-01    1.7501262E+01
 0.1900   -2.5726118E-01   -1.1670550E-01    1.4552185E+01
 0.2000   -1.8803023E-01   -9.4514302E-02    1.1972527E+01
 0.2100   -1.1728370E-01   -6.4995923E-02    9.7413870E+00
 0.2200   -4.5205945E-02   -2.7494814E-02    7.8319052E+00
 0.2300    2.8017560E-02    1.8624982E-02    6.2133233E+00
 0.2400    1.0218031E-01    7.3960452E-02    4.8528362E+00
 0.2500    1.7705051E-01    1.3905514E-01    3.7171710E+00
 0.2600    2.5237313E-01    2.1438761E-01    2.7738656E+00
 0.2700    3.2787258E-01    3.0036027E-01    1.9922454E+00
 0.2800    4.0326172E-01    3.9729484E-01    1.3441045E+00
 0.2900    4.7826457E-01    5.0544520E-01    8.0411194E-01
 0.3000    5.5264500E-01    6.2502677E-01    3.4997988E-01
 0.3100    6.2621779E-01    7.5623827E-01   -3.7538076E-02
 0.3200    6.9882309E-01    8.9924301E-01   -3.7474360E-01
 0.3300    7.7027572E-01    1.0541052E+00   -6.7514003E-01
 0.3400    8.4033114E-01    1.2207259E+00   -9.4963767E-01
 0.3500    9.0870512E-01    1.3988429E+00   -1.2068527E+00
 0.3600    9.7513906E-01    1.5881131E+00   -1.4534946E+00
 0.3700    1.0394609E+00    1.7882221E+00   -1.6947704E+00
 0.3800    1.1015957E+00    1.9989379E+00   -1.9347096E+00
 0.3900    1.1615248E+00    2.2200745E+00   -2.1763703E+00
 0.4000    1.2192242E+00    2.4513957E+00   -2.4219531E+00
 0.4100    1.2746187E+00    2.6925133E+00   -2.6728758E+00
 0.4200    1.3275638E+00    2.9428210E+00   -2.9298535E+00
 0.4300    1.3778647E+00    3.2014989E+00   -3.1930211E+00
 0.4400    1.4253309E+00    3.4676154E+00   -3.4621281E+00
 0.4500    1.4698472E+00    3.7403055E+00   -3.7367891E+00
 0.4600    1.5114179E+00    4.0189268E+00   -4.0166959E+00
 0.4700    1.5501437E+00    4.3030613E+00   -4.3016599E+00
 0.4800    1.5861334E+00    4.5923189E+00   -4.5914474E+00
 0.4900    1.6194154E+00    4.8860767E+00   -4.8855401E+00
 0.5000    1.6499219E+00    5.1833824E+00   -5.1830554E+00
 0.5100    1.6775653E+00    5.4831439E+00   -5.4829465E+00
 0.5200    1.7023397E+00    5.7844593E+00   -5.7843413E+00
 0.5300    1.7243534E+00    6.0867839E+00   -6.0867141E+00
 0.5400    1.7437546E+00    6.3897337E+00   -6.3896928E+00
 0.5500    1.7606036E+00    6.6926301E+00   -6.6926064E+00
 0.5600    1.7747938E+00    6.9941319E+00   -6.9941183E+00
 0.5700    1.7860922E+00    7.2922820E+00   -7.2922743E+00
 0.5800    1.7942842E+00    7.5850261E+00   -7.5850217E+00
 0.5900    1.7993306E+00    7.8709082E+00   -7.8709057E+00
 0.6000    1.8014317E+00    8.1494849E+00   -8.1494836E+00
 0.6100    1.8009518E+00    8.4211543E+00   -8.4211536E+00
 0.6200    1.7982536E+00    8.6864870E+00   -8.6864866E+00
 0.6300    1.7935499E+00    8.9454959E+00   -8.9454957E+00
 0.6400    1.7868656E+00    9.1973283E+00   -9.1973282E+00
 0.6500    1.7781207E+00    9.4405610E+00   -9.4405610E+00
 0.6600    1.7672635E+00    9.6738431E+00   -9.6738431E+00
 0.6700    1.7543574E+00    9.8964071E+00   -9.8964071E+00
 0.6800    1.7395746E+00    1.0108128E+01   -1.0108128E+01
 0.6900    1.7231197E+00    1.0309165E+01   -1.0309165E+01
 0.7000    1.7051449E+00    1.0499466E+01   -1.0499466E+01
 0.7100    1.6857058E+00    1.0678453E+01   -1.0678453E+01
 0.7200    1.6647835E+00    1.0845076E+01   -1.0845076E+01
 0.7300    1.6423536E+00    1.0998216E+01   -1.0998216E+01
 0.7400    1.6184477E+00    1.1137096E+01   -1.1137096E+01
 0.7500    1.5931537E+00    1.1261340E+01   -1.1261340E+01
 0.7600    1.5665533E+00    1.1370570E+01   -1.1370570E+01
 0.7700    1.5386666E+00    1.1463991E+01   -1.1463991E+01
 0.7800    1.5094733E+00    1.1540496E+01   -1.1540496E+01
 0.7900    1.4790160E+00    1.1599437E+01   -1.1599437E+01
 0.8000    1.4475038E+00    1.1641517E+01   -1.1641517E+01
 0.8100    1.4153199E+00    1.1669023E+01   -1.1669023E+01
 0.8200    1.3829032E+00    1.1685017E+01   -1.1685017E+01
 0.8300    1.3505710E+00    1.1691856E+01   -1.1691856E+01
 0.8400    1.3183872E+00    1.1689917E+01   -1.1689917E+01
 0.8500    1.2861528E+00    1.1677242E+01   -1.1677242E+01
 0.8600    1.2535255E+00    1.1650376E+01   -1.1650376E+01
 0.8700    1.2202114E+00    1.1606024E+01   -1.1606024E+01
 0.8800    1.1861245E+00    1.1542649E+01   -1.1542649E+01
 0.8900    1.1514243E+00    1.1461073E+01   -1.1461073E+01
 0.9000    1.1164185E+00    1.1363756E+01   -1.1363756E+01
 0.9100    1.0814144E+00    1.1253427E+01   -1.1253427E+01
 0.9200    1.0466326E+00    1.1132169E+01   -1.1132169E+01
 0.9300    1.0122232E+00    1.1001503E+01   -1.1001503E+01
 0.9400    9.7832752E-01    1.0863002E+01   -1.0863002E+01
 0.9500    9.4510184E-01    1.0718541E+01   -1.0718541E+01
 0.9600    9.1267948E-01    1.0569894E+01   -1.0569894E+01
 0.9700    8.8112236E-01    1.0418125E+01   -1.0418125E+01
 0.9800    8.5040549E-01    1.0263325E+01   -1.0263325E+01
 0.9900    8.2042618E-01    1.0104615E+01   -1.0104615E+01
 1.0000    7.9101838E-01    9.9402302E+00   -9.9402302E+00
 1.0100    7.6199126E-01    9.7679315E+00   -9.7679315E+00
 1.0200    7.3321527E-01    9.5860945E+00   -9.5860945E+00
 1.0300    7.0471803E-01    9.3950630E+00   -9.3950630E+00
 1.0400    6.7670868E-01    9.1976798E+00   -9.1976798E+00
 1.0500    6.4949290E-01    8.9983498E+00   -8.9983498E+00
 1.0600    6.2333107E-01    8.8011692E+00   -8.8011692E+00
 1.0700    5.9833508E-01    8.6083890E+00   -8.6083890E+00
 1.0800    5.7446221E-01    8.4201309E+00   -8.4201309E+00
 1.0900    5.5158946E-01    8.2352885E+00   -8.2352885E+00
 1.1000    5.2960039E-01    8.0527373E+00   -8.0527373E+00
 1.1100    5.0842343E-01    7.8719327E+00   -7.8719327E+00
 1.1200    4.8801192E-01    7.6926565E+00   -7.6926565E+00
 1.1300    4.6830938E-01    7.5144917E+00   -7.5144917E+00
 1.1400    4.4924694E-01    7.3367664E+00   -7.3367664E+00
 1.1500    4.3077489E-01    7.1590587E+00   -7.1590587E+00
 1.1600    4.1288733E-01    6.9816391E+00   -6.9816391E+00
 1.1700    3.9560900E-01    6.8053074E+00   -6.8053074E+00
 1.1800    3.7896036E-01    6.6308265E+00   -6.6308265E+00
 1.1900    3.6293992E-01    6.4586021E+00   -6.4586021E+00
 1.2000    3.4753704E-01    6.2888822E+00   -6.2888822E+00
 1.2100    3.3275176E-01    6.1221076E+00   -6.1221076E+00
 1.2200    3.1859610E-01    5.9589533E+00   -5.9589533E+00
 1.2300    3.0507914E-01    5.8000615E+00   -5.8000615E+00
 1.2400    2.9219617E-01    5.6458294E+00   -5.6458294E+00
 1.2500    2.7993256E-01    5.4964629E+00   -5.4964629E+00
 1.2600    2.6827225E-01    5.3521306E+00   -5.3521306E+00
 1.2700    2.5719599E-01    5.2129254E+00   -5.2129254E+00
 1.2800    2.4666839E-01    5.0785917E+00   -5.0785917E+00
 1.2900    2.3662843E-01    4.9483020E+00   -4.9483020E+00
 1.3000    2.2700058E-01    4.8208491E+00   -4.8208491E+00
 1.3100    2.1772836E-01    4.6953443E+00   -4.6953443E+00
 1.3200    2.0880939E-01    4.5720161E+00   -4.5720161E+00
 1.3300    2.0029969E-01    4.4523924E+00   -4.4523924E+00
 1.3400    1.9227259E-01    4.3384724E+00   -4.3384724E+00
 1.3500    1.8475794E-01    4.2313652E+00   -4.2313652E+00
 1.3600    1.7771071E-01    4.1304872E+00   -4.1304872E+00
 1.3700    1.7103725E-01    4.0340541E+00   -4.0340541E+00
 1.3800    1.6465903E-01    3.9405205E+00   -3.9405205E+00
 1.3900    1.5856262E-01    3.8498186E+00   -3.8498186E+00
 1.4000    1.5279593E-01    3.7633771E+00   -3.7633771E+00
 1.4100    1.4741239E-01    3.6828334E+00   -3.6828334E+00
 1.4200    1.4240583E-01    3.6083971E+00   -3.6083971E+00
 1.4300    1.3768815E-01    3.5381686E+00   -3.5381686E+00
 1.4400    1.3312813E-01    3.4690032E+00   -3.4690032E+00
 1.4500    1.2862118E-01    3.3982736E+00   -3.3982736E+00
 1.4600    1.2413742E-01    3.3252039E+00   -3.3252039E+00
 1.4700    1.1971732E-01    3.2508845E+00   -3.2508845E+00
 1.4800    1.1542610E-01    3.1771471E+00   -3.1771471E+00
 1.4900    1.1130493E-01    3.1052517E+00   -3.1052517E+00
 1.5000    1.0735258E-01    3.0353227E+00   -3.0353227E+00
 1.5100    1.0354398E-01    2.9668025E+00   -2.9668025E+00
 1.5200    9.9865282E-02    2.8994230E+00   -2.8994230E+00
 1.5300    9.6335362E-02    2.8338605E+00   -2.8338605E+00
 1.5400    9.2997975E-02    2.7715633E+00   -2.7715633E+00
 1.5500    8.9892357E-02    2.7139137E+00   -2.7139137E+00
 1.5600    8.7025577E-02    2.6613744E+00   -2.6613744E+00
 1.5700    8.4366634E-02    2.6132436E+00   -2.6132436E+00
 1.5800    8.1865521E-02    2.5681777E+00   -2.5681777E+00
 1.5900    7.9482464E-02    2.5250817E+00   -2.5250817E+00
 1.6000    7.7206094E-02    2.4837130E+00   -2.4837130E+00
 1.6100    7.5049470E-02    2.4446081E+00   -2.4446081E+00
 1.6200    7.3030643E-02    2.4084909E+00   -2.4084909E+00
 1.6300    7.1153897E-02    2.3756571E+00   -2.3756571E+00
 1.6400    6.9403063E-02    2.3457202E+00   -2.3457202E+00
 1.6500    6.7747967E-02    2.3177897E+00   -2.3177897E+00
 1.6600    6.6158318E-02    2.2909230E+00   -2.2909230E+00
 1.6700    6.4616580E-02    2.2645753E+00   -2.2645753E+00
 1.6800    6.3121605E-02    2.2387544E+00   -2.2387544E+00
 1.6900    6.1680143E-02    2.2137504E+00   -2.2137504E+00
 1.7000    6.0292538E-02    2.1896327E+00   -2.1896327E+00
 1.7100    5.8944065E-02    2.1659188E+00   -2.1659188E+00
 1.7200    5.7609232E-02    2.1417010E+00   -2.1417010E+00
 1.7300    5.6266587E-02    2.1161802E+00   -2.1161802E+00
 1.7400    5.4914161E-02    2.0892611E+00   -2.0892611E+00
 1.7500    5.3574751E-02    2.0617980E+00   -2.0617980E+00
 1.7600    5.2285791E-02    2.0352552E+00   -2.0352552E+00
 1.7700    5.1077993E-02    2.0108988E+00   -2.0108988E+00
 1.7800    4.9955863E-02    1.9890071E+00   -1.9890071E+00
 1.7900    4.8895051E-02    1.9687058E+00   -1.9687058E+00
 1.8000    4.7861473E-02    1.9486818E+00   -1.9486818E+00
 1.8100    4.6839406E-02    1.9283168E+00   -1.9283168E+00
 1.8200    4.5844545E-02    1.9082721E+00   -1.9082721E+00
 1.8300    4.4907044E-02    1.8898464E+00   -1.8898464E+00
 1.8400    4.4035829E-02    1.8734913E+00   -1.8734913E+00
 1.8500    4.3196419E-02    1.8578090E+00   -1.8578090E+00
 1.8600    4.2326657E-02    1.8401352E+00   -1.8401352E+00
 1.8700    4.1380414E-02    1.8183937E+00   -1.8183937E+00
 1.8800    4.0361518E-02    1.7926399E+00   -1.7926399E+00
 1.8900    3.9318811E-02    1.7649559E+00   -1.7649559E+00
 1.9000    3.8309948E-02    1.7379154E+00   -1.7379154E+00
 1.9100    3.7367618E-02    1.7130578E+00   -1.7130578E+00
 1.9200    3.6493166E-02    1.6905338E+00   -1.6905338E+00
 1.9300    3.5674000E-02    1.6698455E+00   -1.6698455E+00
 1.9400    3.4903651E-02    1.6507609E+00   -1.6507609E+00
 1.9500    3.4188960E-02    1.6336724E+00   -1.6336724E+00
 1.9600    3.3544164E-02    1.6193435E+00   -1.6193435E+00
 1.9700    3.2979799E-02    1.6083861E+00   -1.6083861E+00
 1.9800    3.2493148E-02    1.6007814E+00   -1.6007814E+00
 1.9900    3.2063971E-02    1.5956342E+00   -1.5956342E+00
 2.0000    3.1657990E-02    1.5913042E+00   -1.5913042E+00
 2.0100    3.1238046E-02    1.5859366E+00   -1.5859366E+00
 2.0200    3.0777931E-02    1.5781636E+00   -1.5781636E+00
 2.0300    3.0271303E-02    1.5675921E+00   -1.5675921E+00
 2.0400    2.9730927E-02    1.5548148E+00   -1.5548148E+00
 2.0500    2.9179388E-02    1.5409685E+00   -1.5409685E+00
 2.0600    2.8636765E-02    1.5271027E+00   -1.5271027E+00
 2.0700    2.8111927E-02    1.5137047E+00   -1.5137047E+00
 2.0800    2.7602075E-02    1.5006460E+00   -1.5006460E+00
 2.0900    2.7100072E-02    1.4875545E+00   -1.4875545E+00
 2.1000    2.6603681E-02    1.4743147E+00   -1.4743147E+00
 2.1100    2.6119730E-02    1.4613137E+00   -1.4613137E+00
 2.1200    2.5660990E-02    1.4492890E+00   -1.4492890E+00
 2.1300    2.5239295E-02    1.4389520E+00   -1.4389520E+00
 2.1400    2.4859804E-02    1.4306556E+00   -1.4306556E+00
 2.1500    2.4518431E-02    1.4242278E+00   -1.4242278E+00
 2.1600    2.4201679E-02    1.4189362E+00   -1.4189362E+00
 2.1700    2.3888275E-02    1.4135596E+00   -1.4135596E+00
 2.1800    2.3553684E-02    1.4066359E+00   -1.4066359E+00
 2.1900    2.3178083E-02    1.3969331E+00   -1.3969331E+00
 2.2000    2.2754863E-02    1.3839789E+00   -1.3839789E+00
 2.2100    2.2294111E-02    1.3683102E+00   -1.3683102E+00
 2.2200    2.1818017E-02    1.3512356E+00   -1.3512356E+00
 2.2300    2.1350943E-02    1.3342483E+00   -1.3342483E+00
 2.2400    2.0910443E-02    1.3184666E+00   -1.3184666E+00
 2.2500    2.0504049E-02    1.3044112E+00   -1.3044112E+00
 2.2600    2.0132000E-02    1.2921522E+00   -1.2921522E+00
 2.2700    1.9792110E-02    1.2816035E+00   -1.2816035E+00
 2.2800    1.9482245E-02    1.2726780E+00   -1.2726780E+00
 2.2900    1.9199018E-02    1.2652019E+00   -1.2652019E+00
 2.3000    1.8935279E-02    1.2587435E+00   -1.2587435E+00
 2.3100    1.8679783E-02    1.2525805E+00   -1.2525805E+00
 2.3200    1.8419753E-02    1.2458611E+00   -1.2458611E+00
 2.3300    1.8144482E-02    1.2378450E+00   -1.2378450E+00
 2.3400    1.7848231E-02    1.2281086E+00   -1.2281086E+00
 2.3500    1.7531982E-02    1.2166807E+00   -1.2166807E+00
 2.3600    1.7203786E-02    1.2040871E+00   -1.2040871E+00
 2.3700    1.6876801E-02    1.1912330E+00   -1.1912330E+00
 2.3800    1.6564581E-02    1.1790826E+00   -1.1790826E+00
 2.3900    1.6275342E-02    1.1682500E+00   -1.1682500E+00
 2.4000    1.6008604E-02    1.1587395E+00   -1.1587395E+00
 2.4100    1.5756537E-02    1.1500182E+00   -1.1500182E+00
 2.4200    1.5509008E-02    1.1413652E+00   -1.1413652E+00
 2.4300    1.5258799E-02    1.1322512E+00   -1.1322512E+00
 2.4400    1.5003903E-02    1.1225192E+00   -1.1225192E+00
 2.4500    1.4746541E-02    1.1123262E+00   -1.1123262E+00
 2.4600    1.4490794E-02    1.1019764E+00   -1.1019764E+00
 2.4700    1.4240822E-02    1.0917893E+00   -1.0917893E+00
 2.4800    1.4000002E-02    1.0820350E+00   -1.0820350E+00
 2.4900    1.3770193E-02    1.0728737E+00   -1.0728737E+00
 2.5000    1.3550758E-02    1.0642741E+00   -1.0642741E+00
 2.5100    1.3338139E-02    1.0559723E+00   -1.0559723E+00
 2.5200    1.3126972E-02    1.0475518E+00   -1.0475518E+00
 2.5300    1.2912552E-02    1.0386351E+00   -1.0386351E+00
 2.5400    1.2693280E-02    1.0290848E+00   -1.0290848E+00
 2.5500    1.2471576E-02    1.0190877E+00   -1.0190877E+00
 2.5600    1.2252497E-02    1.0090540E+00   -1.0090540E+00
 2.5700    1.2040690E-02    9.9937270E-01   -9.9937270E-01
 2.5800    1.1837540E-02    9.9017224E-01   -9.9017224E-01
 2.5900    1.1640544E-02    9.8125681E-01   -9.8125681E-01
 2.6000    1.1445418E-02    9.7227298E-01   -9.7227298E-01
 2.6100    1.1249213E-02    9.6297056E-01   -9.6297056E-01
 2.6200    1.1051728E-02    9.5332863E-01   -9.5332863E-01
 2.6300    1.0853956E-02    9.4342945E-01   -9.4342945E-01
 2.6400    1.0655199E-02    9.3320979E-01   -9.3320979E-01
 2.6500    1.0452089E-02    9.2236903E-01   -9.2236903E-01
 2.6600    1.0241132E-02    9.1058626E-01   -9.1058626E-01
 2.6700    1.0022789E-02    8.9788550E-01   -8.9788550E-01
 2.6800    9.8032449E-03    8.8480854E-01   -8.8480854E-01
 2.6900    9.5919512E-03    8.7221065E-01   -8.7221065E-01
 2.7000    9.3967405E-03    8.6082451E-01   -8.6082451E-01
 2.7100    9.2201406E-03    8.5091462E-01   -8.5091462E-01
 2.7200    9.0591628E-03    8.4223975E-01   -8.4223975E-01
 2.7300    8.9081024E-03    8.3429637E-01   -8.3429637E-01
 2.7400    8.7619815E-03    8.2663411E-01   -8.2663411E-01
 2.7500    8.6182823E-03    8.1902275E-01   -8.1902275E-01
 2.7600    8.4763149E-03    8.1140020E-01   -8.1140020E-01
 2.7700    8.3355614E-03    8.0371904E-01   -8.0371904E-01
 2.7800    8.1948813E-03    7.9586998E-01   -7.9586998E-01
 2.7900    8.0532124E-03    7.8774821E-01   -7.8774821E-01
 2.8000    7.9108193E-03    7.7937665E-01   -7.7937665E-01
 2.8100    7.7698189E-03    7.7096275E-01   -7.7096275E-01
 2.8200    7.6335738E-03    7.6284444E-01   -7.6284444E-01
 2.8300    7.5054168E-03    7.5536621E-01   -7.5536621E-01
 2.8400    7.3873232E-03    7.4874450E-01   -7.4874450E-01
 2.8500    7.2788636E-03    7.4295612E-01   -7.4295612E-01
 2.8600    7.1766636E-03    7.3767408E-01   -7.3767408E-01
 2.8700    7.0748182E-03    7.3229984E-01   -7.3229984E-01
 2.8800    6.9667498E-03    7.2614785E-01   -7.2614785E-01
 2.8900    6.8482241E-03    7.1875936E-01   -7.1875936E-01
 2.9000    6.7199004E-03    7.1018042E-01   -7.1018042E-01
 2.9100    6.5873226E-03    7.0097862E-01   -7.0097862E-01
 2.9200    6.4577256E-03    6.9191883E-01   -6.9191883E-01
 2.9300    6.3355551E-03    6.8348624E-01   -6.8348624E-01
 2.9400    6.2198649E-03    6.7559352E-01   -6.7559352E-01
 2.9500    6.1054959E-03    6.6768996E-01   -6.6768996E-01
 2.9600    5.9871414E-03    6.5919332E-01   -6.5919332E-01
 2.9700    5.8632495E-03    6.4992185E-01   -6.4992185E-01
 2.9800    5.7369125E-03    6.4020729E-01   -6.4020729E-01
 2.9900    5.6133529E-03    6.3062994E-01   -6.3062994E-01
 3.0000    5.4963195E-03    6.2161909E-01   -6.2161909E-01
 3.0100    5.3862681E-03    6.1324049E-01   -6.1324049E-01
 3.0200    5.2812931E-03    6.0529072E-01   -6.0529072E-01
 3.0300    5.1793909E-03    5.9754939E-01   -5.9754939E-01
 3.0400    5.0799244E-03    5.8994875E-01   -5.8994875E-01
 3.0500    4.9833501E-03    5.8254697E-01   -5.8254697E-01
 3.0600    4.8899612E-03    5.7538446E-01   -5.7538446E-01
 3.0700    4.7990781E-03    5.6838739E-01   -5.6838739E-01
 3.0800    4.7094368E-03    5.6141017E-01   -5.6141017E-01
 3.0900    4.6203057E-03    5.5436721E-01   -5.5436721E-01
 3.1000    4.5322307E-03    5.4732497E-01   -5.4732497E-01
 3.1100    4.4466982E-03    5.4046590E-01   -5.4046590E-01
 3.1200    4.3649697E-03    5.3394962E-01   -5.3394962E-01
 3.1300    4.2870242E-03    5.2778188E-01   -5.2778188E-01
 3.1400    4.2114189E-03    5.2179222E-01   -5.2179222E-01
 3.1500    4.1361054E-03    5.1573020E-01   -5.1573020E-01
 3.1600    4.0595585E-03    5.0940457E-01   -5.0940457E-01
 3.1700    3.9815071E-03    5.0277756E-01   -5.0277756E-01
 3.1800    3.9029720E-03    4.9597472E-01   -4.9597472E-01
 3.1900    3.8257159E-03    4.8921971E-01   -4.8921971E-01
 3.2000    3.7513981E-03    4.8272854E-01   -4.8272854E-01
 3.2100    3.6808131E-03    4.7661060E-01   -4.7661060E-01
 3.2200    3.6135914E-03    4.7082623E-01   -4.7082623E-01
 3.2300    3.5485184E-03    4.6522385E-01   -4.6522385E-01
 3.2400    3.4842642E-03    4.5963275E-01   -4.5963275E-01
 3.2500    3.4200994E-03    4.5395763E-01   -4.5395763E-01
 3.2600    3.3562255E-03    4.4822512E-01   -4.4822512E-01
 3.2700    3.2935390E-03    4.4255595E-01   -4.4255595E-01
 3.2800    3.2328956E-03    4.3706823E-01   -4.3706823E-01
 3.2900    3.1742697E-03    4.3176306E-01   -4.3176306E-01
 3.3000    3.1164377E-03    4.2647757E-01   -4.2647757E-01
 3.3100    3.0575789E-03    4.2096260E-01   -4.2096260E-01
 3.3200    2.9964790E-03    4.1504700E-01   -4.1504700E-01
 3.3300    2.9334473E-03    4.0876775E-01   -4.0876775E-01
 3.3400    2.8702044E-03    4.0236076E-01   -4.0236076E-01
 3.3500    2.8088151E-03    3.9611622E-01   -3.9611622E-01
 3.3600    2.7504981E-03    3.9021123E-01   -3.9021123E-01
