# total charge: 6.000000 
# r(A)     rho (e/A^3)     4*pi*r^2*rho(e/A)  dip  
 0.0000   -1.6228773E-01   -0.0000000E+00    4.7873074E+01
 0.0100   -1.5865815E-01   -1.9937571E-04    4.7634505E+01
 0.0200   -1.5407605E-01   -7.7447070E-04    4.6925898E+01
 0.0300   -1.4835369E-01   -1.6778407E-03    4.5768216E+01
 0.0400   -1.4129499E-01   -2.8409044E-03    4.4195258E+01
 0.0500   -1.3268914E-01   -4.1685523E-03    4.2252008E+01
 0.0600   -1.2230674E-01   -5.5330267E-03    3.9992485E+01
 0.0700   -1.0992003E-01   -6.7683496E-03    3.7477240E+01
 0.0800   -9.5351744E-02   -7.6686422E-03    3.4770655E+01
 0.0900   -7.8524779E-02   -7.9928489E-03    3.1938223E+01
 0.1000   -5.9476986E-02   -7.4740985E-03    2.9043961E+01
 0.1100   -3.8333348E-02   -5.8287038E-03    2.6148090E+01
 0.1200   -1.5258386E-02   -2.7610924E-03    2.3305088E+01
 0.1300    9.5830073E-03    2.0351592E-03    2.0562196E+01
 0.1400    3.6043290E-02    8.8774934E-03    1.7958418E+01
 0.1500    6.3991625E-02    1.8093206E-02    1.5524018E+01
 0.1600    9.3304611E-02    3.0016008E-02    1.3280484E+01
 0.1700    1.2385745E-01    4.4981076E-02    1.1240908E+01
 0.1800    1.5552091E-01    6.3320403E-02    9.4106986E+00
 0.1900    1.8816450E-01    8.5360070E-02    7.7885377E+00
 0.2000    2.2166175E-01    1.1141935E-01    6.3674966E+00
 0.2100    2.5589259E-01    1.4180977E-01    5.1362217E+00
 0.2200    2.9074084E-01    1.7683216E-01    4.0801190E+00
 0.2300    3.2608942E-01    2.1677153E-01    3.1824730E+00
 0.2400    3.6181714E-01    2.6189155E-01    2.4254521E+00
 0.2500    3.9779882E-01    3.1243046E-01    1.7909656E+00
 0.2600    4.3390763E-01    3.6859874E-01    1.2613576E+00
 0.2700    4.7001750E-01    4.3057759E-01    8.1993459E-01
 0.2800    5.0600427E-01    4.9851716E-01    4.5133703E-01
 0.2900    5.4174614E-01    5.7253453E-01    1.4176936E-01
 0.3000    5.7712397E-01    6.5271183E-01   -1.2089002E-01
 0.3100    6.1202222E-01    7.3909530E-01   -3.4707701E-01
 0.3200    6.4632994E-01    8.3169501E-01   -5.4560443E-01
 0.3300    6.7994141E-01    9.3048469E-01   -7.2377642E-01
 0.3400    7.1275595E-01    1.0354009E+00   -8.8753462E-01
 0.3500    7.4467774E-01    1.1463423E+00   -1.0416204E+00
 0.3600    7.7561612E-01    1.2631697E+00   -1.1897414E+00
 0.3700    8.0548652E-01    1.3857076E+00   -1.3347339E+00
 0.3800    8.3421108E-01    1.5137460E+00   -1.4787124E+00
 0.3900    8.6171833E-01    1.6470410E+00   -1.6232023E+00
 0.4000    8.8794214E-01    1.7853136E+00   -1.7692540E+00
 0.4100    9.1282118E-01    1.9282498E+00   -1.9175384E+00
 0.4200    9.3629937E-01    2.0755021E+00   -2.0684289E+00
 0.4300    9.5832726E-01    2.2266944E+00   -2.2220702E+00
 0.4400    9.7886324E-01    2.3814268E+00   -2.3784337E+00
 0.4500    9.9787390E-01    2.5392798E+00   -2.5373617E+00
 0.4600    1.0153336E+00    2.6998167E+00   -2.6985998E+00
 0.4700    1.0312236E+00    2.8625851E+00   -2.8618207E+00
 0.4800    1.0455311E+00    3.0271175E+00   -3.0266422E+00
 0.4900    1.0582487E+00    3.1929328E+00   -3.1926401E+00
 0.5000    1.0693741E+00    3.3595379E+00   -3.3593595E+00
 0.5100    1.0789103E+00    3.5264325E+00   -3.5263248E+00
 0.5200    1.0868664E+00    3.6931140E+00   -3.6930497E+00
 0.5300    1.0932577E+00    3.8590832E+00   -3.8590451E+00
 0.5400    1.0981052E+00    4.0238458E+00   -4.0238235E+00
 0.5500    1.1014346E+00    4.1869131E+00   -4.1869002E+00
 0.5600    1.1032751E+00    4.3478017E+00   -4.3477943E+00
 0.5700    1.1036595E+00    4.5060362E+00   -4.5060320E+00
 0.5800    1.1026242E+00    4.6611530E+00   -4.6611506E+00
 0.5900    1.1002093E+00    4.8127044E+00   -4.8127030E+00
 0.6000    1.0964584E+00    4.9602608E+00   -4.9602601E+00
 0.6100    1.0914179E+00    5.1034117E+00   -5.1034113E+00
 0.6200    1.0851365E+00    5.2417656E+00   -5.2417654E+00
 0.6300    1.0776646E+00    5.3749517E+00   -5.3749516E+00
 0.6400    1.0690546E+00    5.5026220E+00   -5.5026219E+00
 0.6500    1.0593605E+00    5.6244535E+00   -5.6244535E+00
 0.6600    1.0486378E+00    5.7401499E+00   -5.7401499E+00
 0.6700    1.0369431E+00    5.8494415E+00   -5.8494415E+00
 0.6800    1.0243338E+00    5.9520861E+00   -5.9520861E+00
 0.6900    1.0108676E+00    6.0478680E+00   -6.0478680E+00
 0.7000    9.9660215E-01    6.1365993E+00   -6.1365993E+00
 0.7100    9.8159542E-01    6.2181198E+00   -6.2181198E+00
 0.7200    9.6590504E-01    6.2922981E+00   -6.2922981E+00
 0.7300    9.4958843E-01    6.3590319E+00   -6.3590319E+00
 0.7400    9.3270259E-01    6.4182479E+00   -6.4182479E+00
 0.7500    9.1530390E-01    6.4699020E+00   -6.4699020E+00
 0.7600    8.9744807E-01    6.5139793E+00   -6.5139793E+00
 0.7700    8.7918990E-01    6.5504933E+00   -6.5504933E+00
 0.7800    8.6058322E-01    6.5794856E+00   -6.5794856E+00
 0.7900    8.4168070E-01    6.6010256E+00   -6.6010256E+00
 0.8000    8.2253382E-01    6.6152095E+00   -6.6152095E+00
 0.8100    8.0319284E-01    6.6221609E+00   -6.6221609E+00
 0.8200    7.8370682E-01    6.6220308E+00   -6.6220308E+00
 0.8300    7.6412363E-01    6.6149974E+00   -6.6149974E+00
 0.8400    7.4448985E-01    6.6012658E+00   -6.6012658E+00
 0.8500    7.2485071E-01    6.5810666E+00   -6.5810666E+00
 0.8600    7.0525005E-01    6.5546558E+00   -6.5546558E+00
 0.8700    6.8573026E-01    6.5223137E+00   -6.5223137E+00
 0.8800    6.6633231E-01    6.4843446E+00   -6.4843446E+00
 0.8900    6.4709574E-01    6.4410760E+00   -6.4410760E+00
 0.9000    6.2805859E-01    6.3928577E+00   -6.3928577E+00
 0.9100    6.0925733E-01    6.3400607E+00   -6.3400607E+00
 0.9200    5.9072680E-01    6.2830742E+00   -6.2830742E+00
 0.9300    5.7249984E-01    6.2223027E+00   -6.2223027E+00
 0.9400    5.5460691E-01    6.1581583E+00   -6.1581583E+00
 0.9500    5.3707529E-01    6.0910511E+00   -6.0910511E+00
 0.9600    5.1992824E-01    6.0213758E+00   -6.0213758E+00
 0.9700    5.0318413E-01    5.9494972E+00   -5.9494972E+00
 0.9800    4.8685594E-01    5.8757388E+00   -5.8757388E+00
 0.9900    4.7095119E-01    5.8003760E+00   -5.8003760E+00
 1.0000    4.5547251E-01    5.7236363E+00   -5.7236363E+00
 1.0100    4.4041855E-01    5.6457055E+00   -5.6457055E+00
 1.0200    4.2578508E-01    5.5667363E+00   -5.5667363E+00
 1.0300    4.1156596E-01    5.4868586E+00   -5.4868586E+00
 1.0400    3.9775395E-01    5.4061867E+00   -5.4061867E+00
 1.0500    3.8434122E-01    5.3248261E+00   -5.3248261E+00
 1.0600    3.7131975E-01    5.2428767E+00   -5.2428767E+00
 1.0700    3.5868144E-01    5.1604352E+00   -5.1604352E+00
 1.0800    3.4641832E-01    5.0775969E+00   -5.0775969E+00
 1.0900    3.3452246E-01    4.9944554E+00   -4.9944554E+00
 1.1000    3.2298603E-01    4.9111022E+00   -4.9111022E+00
 1.1100    3.1180120E-01    4.8276258E+00   -4.8276258E+00
 1.1200    3.0096012E-01    4.7441112E+00   -4.7441112E+00
 1.1300    2.9045496E-01    4.6606399E+00   -4.6606399E+00
 1.1400    2.8027794E-01    4.5772905E+00   -4.5772905E+00
 1.1500    2.7042139E-01    4.4941399E+00   -4.4941399E+00
 1.1600    2.6087779E-01    4.4112630E+00   -4.4112630E+00
 1.1700    2.5163975E-01    4.3287334E+00   -4.3287334E+00
 1.1800    2.4269998E-01    4.2466222E+00   -4.2466222E+00
 1.1900    2.3405124E-01    4.1649974E+00   -4.1649974E+00
 1.2000    2.2568630E-01    4.0839231E+00   -4.0839231E+00
 1.2100    2.1759800E-01    4.0034601E+00   -4.0034601E+00
 1.2200    2.0977923E-01    3.9236659E+00   -3.9236659E+00
 1.2300    2.0222300E-01    3.8445953E+00   -3.8445953E+00
 1.2400    1.9492236E-01    3.7662998E+00   -3.7662998E+00
 1.2500    1.8787041E-01    3.6888269E+00   -3.6888269E+00
 1.2600    1.8106031E-01    3.6122203E+00   -3.6122203E+00
 1.2700    1.7448529E-01    3.5365201E+00   -3.5365201E+00
 1.2800    1.6813868E-01    3.4617638E+00   -3.4617638E+00
 1.2900    1.6201391E-01    3.3879859E+00   -3.3879859E+00
 1.3000    1.5610455E-01    3.3152183E+00   -3.3152183E+00
 1.3100    1.5040422E-01    3.2434893E+00   -3.2434893E+00
 1.3200    1.4490661E-01    3.1728236E+00   -3.1728236E+00
 1.3300    1.3960550E-01    3.1032422E+00   -3.1032422E+00
 1.3400    1.3449472E-01    3.0347623E+00   -3.0347623E+00
 1.3500    1.2956816E-01    2.9673973E+00   -2.9673973E+00
 1.3600    1.2481981E-01    2.9011567E+00   -2.9011567E+00
 1.3700    1.2024372E-01    2.8360469E+00   -2.8360469E+00
 1.3800    1.1583411E-01    2.7720720E+00   -2.7720720E+00
 1.3900    1.1158535E-01    2.7092347E+00   -2.7092347E+00
 1.4000    1.0749196E-01    2.6475363E+00   -2.6475363E+00
 1.4100    1.0354862E-01    2.5869760E+00   -2.5869760E+00
 1.4200    9.9750095E-02    2.5275507E+00   -2.5275507E+00
 1.4300    9.6091257E-02    2.4692543E+00   -2.4692543E+00
 1.4400    9.2567075E-02    2.4120782E+00   -2.4120782E+00
 1.4500    8.9172657E-02    2.3560124E+00   -2.3560124E+00
 1.4600    8.5903272E-02    2.3010459E+00   -2.3010459E+00
 1.4700    8.2754365E-02    2.2471675E+00   -2.2471675E+00
 1.4800    7.9721544E-02    2.1943657E+00   -2.1943657E+00
 1.4900    7.6800559E-02    2.1426280E+00   -2.1426280E+00
 1.5000    7.3987286E-02    2.0919412E+00   -2.0919412E+00
 1.5100    7.1277725E-02    2.0422908E+00   -2.0422908E+00
 1.5200    6.8668013E-02    1.9936619E+00   -1.9936619E+00
 1.5300    6.6154427E-02    1.9460394E+00   -1.9460394E+00
 1.5400    6.3733387E-02    1.8994082E+00   -1.8994082E+00
 1.5500    6.1401446E-02    1.8537530E+00   -1.8537530E+00
 1.5600    5.9155287E-02    1.8090586E+00   -1.8090586E+00
 1.5700    5.6991722E-02    1.7653099E+00   -1.7653099E+00
 1.5800    5.4907694E-02    1.7224921E+00   -1.7224921E+00
 1.5900    5.2900270E-02    1.6805909E+00   -1.6805909E+00
 1.6000    5.0966638E-02    1.6395921E+00   -1.6395921E+00
 1.6100    4.9104105E-02    1.5994822E+00   -1.5994822E+00
 1.6200    4.7310084E-02    1.5602479E+00   -1.5602479E+00
 1.6300    4.5582085E-02    1.5218760E+00   -1.5218760E+00
 1.6400    4.3917708E-02    1.4843531E+00   -1.4843531E+00
 1.6500    4.2314639E-02    1.4476661E+00   -1.4476661E+00
 1.6600    4.0770655E-02    1.4118018E+00   -1.4118018E+00
 1.6700    3.9283621E-02    1.3767476E+00   -1.3767476E+00
 1.6800    3.7851487E-02    1.3424910E+00   -1.3424910E+00
 1.6900    3.6472279E-02    1.3090197E+00   -1.3090197E+00
 1.7000    3.5144095E-02    1.2763215E+00   -1.2763215E+00
 1.7100    3.3865096E-02    1.2443839E+00   -1.2443839E+00
 1.7200    3.2633504E-02    1.2131946E+00   -1.2131946E+00
 1.7300    3.1447601E-02    1.1827408E+00   -1.1827408E+00
 1.7400    3.0305727E-02    1.1530100E+00   -1.1530100E+00
 1.7500    2.9206281E-02    1.1239894E+00   -1.1239894E+00
 1.7600    2.8147716E-02    1.0956664E+00   -1.0956664E+00
 1.7700    2.7128539E-02    1.0680284E+00   -1.0680284E+00
 1.7800    2.6147311E-02    1.0410627E+00   -1.0410627E+00
 1.7900    2.5202637E-02    1.0147567E+00   -1.0147567E+00
 1.8000    2.4293167E-02    9.8909730E-01   -9.8909730E-01
 1.8100    2.3417590E-02    9.6407144E-01   -9.6407144E-01
 1.8200    2.2574632E-02    9.3966560E-01   -9.3966560E-01
 1.8300    2.1763059E-02    9.1586609E-01   -9.1586609E-01
 1.8400    2.0981674E-02    8.9265911E-01   -8.9265911E-01
 1.8500    2.0229321E-02    8.7003080E-01   -8.7003080E-01
 1.8600    1.9504886E-02    8.4796744E-01   -8.4796744E-01
 1.8700    1.8807300E-02    8.2645559E-01   -8.2645559E-01
 1.8800    1.8135534E-02    8.0548214E-01   -8.0548214E-01
 1.8900    1.7488603E-02    7.8503421E-01   -7.8503421E-01
 1.9000    1.6865551E-02    7.6509894E-01   -7.6509894E-01
 1.9100    1.6265456E-02    7.4566343E-01   -7.4566343E-01
 1.9200    1.5687425E-02    7.2671476E-01   -7.2671476E-01
 1.9300    1.5130599E-02    7.0824023E-01   -7.0824023E-01
 1.9400    1.4594153E-02    6.9022744E-01   -6.9022744E-01
 1.9500    1.4077299E-02    6.7266439E-01   -6.7266439E-01
 1.9600    1.3579281E-02    6.5553939E-01   -6.5553939E-01
 1.9700    1.3099372E-02    6.3884102E-01   -6.3884102E-01
 1.9800    1.2636874E-02    6.2255810E-01   -6.2255810E-01
 1.9900    1.2191118E-02    6.0667981E-01   -6.0667981E-01
 2.0000    1.1761465E-02    5.9119571E-01   -5.9119571E-01
 2.0100    1.1347304E-02    5.7609572E-01   -5.7609572E-01
 2.0200    1.0948048E-02    5.6137010E-01   -5.6137010E-01
 2.0300    1.0563135E-02    5.4700937E-01   -5.4700937E-01
 2.0400    1.0192027E-02    5.3300438E-01   -5.3300438E-01
 2.0500    9.8342099E-03    5.1934632E-01   -5.1934632E-01
 2.0600    9.4891916E-03    5.0602680E-01   -5.0602680E-01
 2.0700    9.1565034E-03    4.9303780E-01   -4.9303780E-01
 2.0800    8.8356972E-03    4.8037164E-01   -4.8037164E-01
 2.0900    8.5263441E-03    4.6802095E-01   -4.6802095E-01
 2.1000    8.2280340E-03    4.5597867E-01   -4.5597867E-01
 2.1100    7.9403734E-03    4.4423800E-01   -4.4423800E-01
 2.1200    7.6629841E-03    4.3279228E-01   -4.3279228E-01
 2.1300    7.3955013E-03    4.2163503E-01   -4.2163503E-01
 2.1400    7.1375727E-03    4.1075982E-01   -4.1075982E-01
 2.1500    6.8888580E-03    4.0016032E-01   -4.0016032E-01
 2.1600    6.6490295E-03    3.8983033E-01   -3.8983033E-01
 2.1700    6.4177725E-03    3.7976387E-01   -3.7976387E-01
 2.1800    6.1947849E-03    3.6995515E-01   -3.6995515E-01
 2.1900    5.9797761E-03    3.6039854E-01   -3.6039854E-01
 2.2000    5.7724649E-03    3.5108844E-01   -3.5108844E-01
 2.2100    5.5725773E-03    3.4201922E-01   -3.4201922E-01
 2.2200    5.3798458E-03    3.3318515E-01   -3.3318515E-01
 2.2300    5.1940099E-03    3.2458046E-01   -3.2458046E-01
 2.2400    5.0148182E-03    3.1619944E-01   -3.1619944E-01
 2.2500    4.8420295E-03    3.0803661E-01   -3.0803661E-01
 2.2600    4.6754128E-03    3.0008667E-01   -3.0008667E-01
 2.2700    4.5147452E-03    2.9234443E-01   -2.9234443E-01
 2.2800    4.3598103E-03    2.8480470E-01   -2.8480470E-01
 2.2900    4.2103965E-03    2.7746220E-01   -2.7746220E-01
 2.3000    4.0662976E-03    2.7031161E-01   -2.7031161E-01
 2.3100    3.9273129E-03    2.6334758E-01   -2.6334758E-01
 2.3200    3.7932484E-03    2.5656482E-01   -2.5656482E-01
 2.3300    3.6639171E-03    2.4995818E-01   -2.4995818E-01
 2.3400    3.5391401E-03    2.4352263E-01   -2.4352263E-01
 2.3500    3.4187460E-03    2.3725339E-01   -2.3725339E-01
 2.3600    3.3025715E-03    2.3114585E-01   -2.3114585E-01
 2.3700    3.1904597E-03    2.2519556E-01   -2.2519556E-01
 2.3800    3.0822594E-03    2.1939815E-01   -2.1939815E-01
 2.3900    2.9778234E-03    2.1374926E-01   -2.1374926E-01
 2.4000    2.8770095E-03    2.0824455E-01   -2.0824455E-01
 2.4100    2.7796802E-03    2.0287979E-01   -2.0287979E-01
 2.4200    2.6857041E-03    1.9765088E-01   -1.9765088E-01
 2.4300    2.5949559E-03    1.9255393E-01   -1.9255393E-01
 2.4400    2.5073169E-03    1.8758528E-01   -1.8758528E-01
 2.4500    2.4226748E-03    1.8274149E-01   -1.8274149E-01
 2.4600    2.3409224E-03    1.7801930E-01   -1.7801930E-01
 2.4700    2.2619574E-03    1.7341561E-01   -1.7341561E-01
 2.4800    2.1856811E-03    1.6892737E-01   -1.6892737E-01
 2.4900    2.1119983E-03    1.6455160E-01   -1.6455160E-01
 2.5000    2.0408169E-03    1.6028538E-01   -1.6028538E-01
 2.5100    1.9720488E-03    1.5612591E-01   -1.5612591E-01
 2.5200    1.9056100E-03    1.5207050E-01   -1.5207050E-01
 2.5300    1.8414206E-03    1.4811666E-01   -1.4811666E-01
 2.5400    1.7794047E-03    1.4426203E-01   -1.4426203E-01
 2.5500    1.7194902E-03    1.4050440E-01   -1.4050440E-01
 2.5600    1.6616079E-03    1.3684166E-01   -1.3684166E-01
 2.5700    1.6056915E-03    1.3327179E-01   -1.3327179E-01
 2.5800    1.5516770E-03    1.2979280E-01   -1.2979280E-01
 2.5900    1.4995026E-03    1.2640278E-01   -1.2640278E-01
 2.6000    1.4491085E-03    1.2309984E-01   -1.2309984E-01
 2.6100    1.4004364E-03    1.1988208E-01   -1.1988208E-01
 2.6200    1.3534297E-03    1.1674765E-01   -1.1674765E-01
 2.6300    1.3080332E-03    1.1369467E-01   -1.1369467E-01
 2.6400    1.2641935E-03    1.1072133E-01   -1.1072133E-01
 2.6500    1.2218589E-03    1.0782580E-01   -1.0782580E-01
 2.6600    1.1809789E-03    1.0500628E-01   -1.0500628E-01
 2.6700    1.1415041E-03    1.0226096E-01   -1.0226096E-01
 2.6800    1.1033867E-03    9.9588044E-02   -9.9588044E-02
 2.6900    1.0665803E-03    9.6985764E-02   -9.6985764E-02
 2.7000    1.0310399E-03    9.4452371E-02   -9.4452371E-02
 2.7100    9.9672163E-04    9.1986126E-02   -9.1986126E-02
 2.7200    9.6358266E-04    8.9585279E-02   -8.9585279E-02
 2.7300    9.3158098E-04    8.7248059E-02   -8.7248059E-02
 2.7400    9.0067552E-04    8.4972687E-02   -8.4972687E-02
 2.7500    8.7082629E-04    8.2757390E-02   -8.2757390E-02
 2.7600    8.4199447E-04    8.0600413E-02   -8.0600413E-02
 2.7700    8.1414239E-04    7.8500021E-02   -7.8500021E-02
 2.7800    7.8723364E-04    7.6454509E-02   -7.6454509E-02
 2.7900    7.6123324E-04    7.4462226E-02   -7.4462226E-02
 2.8000    7.3610776E-04    7.2521591E-02   -7.2521591E-02
 2.8100    7.1182536E-04    7.0631099E-02   -7.0631099E-02
 2.8200    6.8835554E-04    6.8789301E-02   -6.8789301E-02
 2.8300    6.6566891E-04    6.6994787E-02   -6.6994787E-02
 2.8400    6.4373697E-04    6.5246166E-02   -6.5246166E-02
 2.8500    6.2253199E-04    6.3542055E-02   -6.3542055E-02
 2.8600    6.0202689E-04    6.1881070E-02   -6.1881070E-02
 2.8700    5.8219541E-04    6.0261847E-02   -6.0261847E-02
 2.8800    5.6301238E-04    5.8683065E-02   -5.8683065E-02
 2.8900    5.4445410E-04    5.7143498E-02   -5.7143498E-02
 2.9000    5.2649863E-04    5.5642048E-02   -5.5642048E-02
 2.9100    5.0912584E-04    5.4177752E-02   -5.4177752E-02
 2.9200    4.9231720E-04    5.2749770E-02   -5.2749770E-02
 2.9300    4.7605539E-04    5.1357348E-02   -5.1357348E-02
 2.9400    4.6032382E-04    4.9999766E-02   -4.9999766E-02
 2.9500    4.4510615E-04    4.8676293E-02   -4.8676293E-02
 2.9600    4.3038598E-04    4.7386147E-02   -4.7386147E-02
 2.9700    4.1614688E-04    4.6128507E-02   -4.6128507E-02
 2.9800    4.0237280E-04    4.4902551E-02   -4.4902551E-02
 2.9900    3.8904860E-04    4.3707513E-02   -4.3707513E-02
 3.0000    3.7616022E-04    4.2542719E-02   -4.2542719E-02
 3.0100    3.6369469E-04    4.1407576E-02   -4.1407576E-02
 3.0200    3.5163964E-04    4.0301534E-02   -4.0301534E-02
 3.0300    3.3998294E-04    3.9224033E-02   -3.9224033E-02
 3.0400    3.2871248E-04    3.8174488E-02   -3.8174488E-02
 3.0500    3.1781622E-04    3.7152291E-02   -3.7152291E-02
 3.0600    3.0728232E-04    3.6156825E-02   -3.6156825E-02
 3.0700    2.9709926E-04    3.5187481E-02   -3.5187481E-02
 3.0800    2.8725590E-04    3.4243666E-02   -3.4243666E-02
 3.0900    2.7774151E-04    3.3324805E-02   -3.3324805E-02
 3.1000    2.6854582E-04    3.2430351E-02   -3.2430351E-02
 3.1100    2.5965901E-04    3.1559786E-02   -3.1559786E-02
 3.1200    2.5107170E-04    3.0712617E-02   -3.0712617E-02
 3.1300    2.4277473E-04    2.9888356E-02   -2.9888356E-02
 3.1400    2.3475894E-04    2.9086489E-02   -2.9086489E-02
 3.1500    2.2701496E-04    2.8306453E-02   -2.8306453E-02
 3.1600    2.1953312E-04    2.7547620E-02   -2.7547620E-02
 3.1700    2.1230358E-04    2.6809314E-02   -2.6809314E-02
 3.1800    2.0531657E-04    2.6090842E-02   -2.6090842E-02
 3.1900    1.9856278E-04    2.5391541E-02   -2.5391541E-02
 3.2000    1.9203354E-04    2.4710806E-02   -2.4710806E-02
 3.2100    1.8572084E-04    2.4048089E-02   -2.4048089E-02
 3.2200    1.7961715E-04    2.3402886E-02   -2.3402886E-02
 3.2300    1.7371518E-04    2.2774701E-02   -2.2774701E-02
 3.2400    1.6800767E-04    2.2163022E-02   -2.2163022E-02
 3.2500    1.6248731E-04    2.1567313E-02   -2.1567313E-02
 3.2600    1.5714689E-04    2.0987024E-02   -2.0987024E-02
 3.2700    1.5197943E-04    2.0421619E-02   -2.0421619E-02
 3.2800    1.4697847E-04    1.9870613E-02   -1.9870613E-02
 3.2900    1.4213821E-04    1.9333590E-02   -1.9333590E-02
 3.3000    1.3745342E-04    1.8810195E-02   -1.8810195E-02
 3.3100    1.3291899E-04    1.8300076E-02   -1.8300076E-02
 3.3200    1.2852968E-04    1.7802847E-02   -1.7802847E-02
 3.3300    1.2428002E-04    1.7318076E-02   -1.7318076E-02
 3.3400    1.2016466E-04    1.6845331E-02   -1.6845331E-02
 3.3500    1.1617875E-04    1.6384235E-02   -1.6384235E-02
 3.3600    1.1231812E-04    1.5934493E-02   -1.5934493E-02
