# total charge: 8.000000 
# r(A)     rho (e/A^3)     4*pi*r^2*rho(e/A)  dip  
 0.0000    4.2272290E-01    0.0000000E+00    6.3830765E+01
 0.0100    4.3116724E-01    5.4182073E-04    6.3511866E+01
 0.0200    4.4182257E-01    2.2208424E-03    6.2564610E+01
 0.0300    4.5511854E-01    5.1472695E-03    6.1016903E+01
 0.0400    4.7149812E-01    9.4800323E-03    5.8913742E+01
 0.0500    4.9143029E-01    1.5438738E-02    5.6315014E+01
 0.0600    5.1541818E-01    2.3316969E-02    5.3292619E+01
 0.0700    5.4395307E-01    3.3494028E-02    4.9927135E+01
 0.0800    5.7740248E-01    4.6437463E-02    4.6304211E+01
 0.0900    6.1589620E-01    6.2690598E-02    4.2510949E+01
 0.1000    6.5929244E-01    8.2849132E-02    3.8632467E+01
 0.1100    7.0724256E-01    1.0753841E-01    3.4748810E+01
 0.1200    7.5930177E-01    1.3740001E-01    3.0932369E+01
 0.1300    8.1502059E-01    1.7308728E-01    2.7245887E+01
 0.1400    8.7398703E-01    2.1526376E-01    2.3741131E+01
 0.1500    9.3582737E-01    2.6459895E-01    2.0458216E+01
 0.1600    1.0001877E+00    3.2175946E-01    1.7425574E+01
 0.1700    1.0667157E+00    3.8739711E-01    1.4660455E+01
 0.1800    1.1350533E+00    4.6213743E-01    1.2169888E+01
 0.1900    1.2048406E+00    5.4657109E-01    9.9519593E+00
 0.2000    1.2757234E+00    6.4124852E-01    7.9973061E+00
 0.2100    1.3473582E+00    7.4667487E-01    6.2907005E+00
 0.2200    1.4194094E+00    8.6330233E-01    4.8126325E+00
 0.2300    1.4915434E+00    9.9151987E-01    3.5408062E+00
 0.2400    1.5634255E+00    1.1316432E+00    2.4514816E+00
 0.2500    1.6347227E+00    1.2839082E+00    1.5206198E+00
 0.2600    1.7051088E+00    1.4484672E+00    7.2480788E-01
 0.2700    1.7742676E+00    1.6253860E+00    4.1963583E-02
 0.2800    1.8418925E+00    1.8146389E+00   -5.4816662E-01
 0.2900    1.9076847E+00    2.0161018E+00   -1.0636966E+00
 0.3000    1.9713529E+00    2.2295476E+00   -1.5204519E+00
 0.3100    2.0326186E+00    2.4546476E+00   -1.9319566E+00
 0.3200    2.0912219E+00    2.6909766E+00   -2.3095225E+00
 0.3300    2.1469253E+00    2.9380195E+00   -2.6624085E+00
 0.3400    2.1995136E+00    3.1951728E+00   -2.9980177E+00
 0.3500    2.2487907E+00    3.4617443E+00   -3.3221151E+00
 0.3600    2.2945790E+00    3.7369551E+00   -3.6390508E+00
 0.3700    2.3367212E+00    4.0199459E+00   -3.9519810E+00
 0.3800    2.3750817E+00    4.3097851E+00   -4.2630735E+00
 0.3900    2.4095456E+00    4.6054729E+00   -4.5736880E+00
 0.4000    2.4400152E+00    4.9059416E+00   -4.8845288E+00
 0.4100    2.4664079E+00    5.2100570E+00   -5.1957751E+00
 0.4200    2.4886579E+00    5.5166274E+00   -5.5071965E+00
 0.4300    2.5067207E+00    5.8244204E+00   -5.8182548E+00
 0.4400    2.5205755E+00    6.1321805E+00   -6.1281897E+00
 0.4500    2.5302266E+00    6.4386423E+00   -6.4360849E+00
 0.4600    2.5357003E+00    6.7425388E+00   -6.7409163E+00
 0.4700    2.5370427E+00    7.0426053E+00   -7.0415862E+00
 0.4800    2.5343162E+00    7.3375848E+00   -7.3369509E+00
 0.4900    2.5275982E+00    7.6262328E+00   -7.6258425E+00
 0.5000    2.5169800E+00    7.9073258E+00   -7.9070879E+00
 0.5100    2.5025668E+00    8.1796722E+00   -8.1795287E+00
 0.5200    2.4844791E+00    8.4421272E+00   -8.4420415E+00
 0.5300    2.4628522E+00    8.6936059E+00   -8.6935552E+00
 0.5400    2.4378353E+00    8.9330908E+00   -8.9330611E+00
 0.5500    2.4095884E+00    9.1596336E+00   -9.1596163E+00
 0.5600    2.3782796E+00    9.3723572E+00   -9.3723473E+00
 0.5700    2.3440848E+00    9.5704619E+00   -9.5704563E+00
 0.5800    2.3071872E+00    9.7532348E+00   -9.7532316E+00
 0.5900    2.2677769E+00    9.9200581E+00   -9.9200563E+00
 0.6000    2.2260501E+00    1.0070413E+01   -1.0070412E+01
 0.6100    2.1822069E+00    1.0203883E+01   -1.0203882E+01
 0.6200    2.1364499E+00    1.0320149E+01   -1.0320148E+01
 0.6300    2.0889829E+00    1.0418995E+01   -1.0418995E+01
 0.6400    2.0400103E+00    1.0500311E+01   -1.0500311E+01
 0.6500    1.9897362E+00    1.0564090E+01   -1.0564089E+01
 0.6600    1.9383635E+00    1.0610429E+01   -1.0610429E+01
 0.6700    1.8860927E+00    1.0639531E+01   -1.0639531E+01
 0.6800    1.8331208E+00    1.0651696E+01   -1.0651696E+01
 0.6900    1.7796404E+00    1.0647320E+01   -1.0647320E+01
 0.7000    1.7258394E+00    1.0626893E+01   -1.0626893E+01
 0.7100    1.6719000E+00    1.0590997E+01   -1.0590997E+01
 0.7200    1.6179982E+00    1.0540298E+01   -1.0540298E+01
 0.7300    1.5643035E+00    1.0475544E+01   -1.0475544E+01
 0.7400    1.5109774E+00    1.0397556E+01   -1.0397556E+01
 0.7500    1.4581733E+00    1.0307220E+01   -1.0307220E+01
 0.7600    1.4060354E+00    1.0205477E+01   -1.0205477E+01
 0.7700    1.3546983E+00    1.0093317E+01   -1.0093317E+01
 0.7800    1.3042852E+00    9.9717561E+00   -9.9717561E+00
 0.7900    1.2549067E+00    9.8418219E+00   -9.8418219E+00
 0.8000    1.2066585E+00    9.7045235E+00   -9.7045235E+00
 0.8100    1.1596195E+00    9.5608257E+00   -9.5608257E+00
 0.8200    1.1138510E+00    9.4116258E+00   -9.4116258E+00
 0.8300    1.0693970E+00    9.2577408E+00   -9.2577408E+00
 0.8400    1.0262862E+00    9.0999060E+00   -9.0999060E+00
 0.8500    9.8453390E-01    8.9387829E+00   -8.9387829E+00
 0.8600    9.4414528E-01    8.7749690E+00   -8.7749690E+00
 0.8700    9.0511695E-01    8.6090071E+00   -8.6090071E+00
 0.8800    8.6743901E-01    8.4413937E+00   -8.4413937E+00
 0.8900    8.3109652E-01    8.2725870E+00   -8.2725870E+00
 0.9000    7.9607078E-01    8.1030136E+00   -8.1030136E+00
 0.9100    7.6234024E-01    7.9330738E+00   -7.9330738E+00
 0.9200    7.2988099E-01    7.7631428E+00   -7.7631428E+00
 0.9300    6.9866691E-01    7.5935689E+00   -7.5935689E+00
 0.9400    6.6866971E-01    7.4246712E+00   -7.4246712E+00
 0.9500    6.3985911E-01    7.2567378E+00   -7.2567378E+00
 0.9600    6.1220310E-01    7.0900264E+00   -7.0900264E+00
 0.9700    5.8566846E-01    6.9247670E+00   -6.9247670E+00
 0.9800    5.6022120E-01    6.7611653E+00   -6.7611653E+00
 0.9900    5.3582701E-01    6.5994062E+00   -6.5994062E+00
 1.0000    5.1245142E-01    6.4396545E+00   -6.4396545E+00
 1.0100    4.9005982E-01    6.2820547E+00   -6.2820547E+00
 1.0200    4.6861748E-01    6.1267292E+00   -6.1267292E+00
 1.0300    4.4808957E-01    5.9737789E+00   -5.9737789E+00
 1.0400    4.2844140E-01    5.8232840E+00   -5.8232840E+00
 1.0500    4.0963866E-01    5.6753075E+00   -5.6753075E+00
 1.0600    3.9164764E-01    5.5298979E+00   -5.5298979E+00
 1.0700    3.7443552E-01    5.3870928E+00   -5.3870928E+00
 1.0800    3.5797043E-01    5.2469210E+00   -5.2469210E+00
 1.0900    3.4222158E-01    5.1094041E+00   -5.1094041E+00
 1.1000    3.2715914E-01    4.9745557E+00   -4.9745557E+00
 1.1100    3.1275416E-01    4.8423806E+00   -4.8423806E+00
 1.1200    2.9897855E-01    4.7128753E+00   -4.7128753E+00
 1.1300    2.8580512E-01    4.5860285E+00   -4.5860285E+00
 1.1400    2.7320767E-01    4.4618242E+00   -4.4618242E+00
 1.1500    2.6116115E-01    4.3402436E+00   -4.3402436E+00
 1.1600    2.4964167E-01    4.2212679E+00   -4.2212679E+00
 1.1700    2.3862648E-01    4.1048777E+00   -4.1048777E+00
 1.1800    2.2809381E-01    3.9910519E+00   -3.9910519E+00
 1.1900    2.1802275E-01    3.8797666E+00   -3.8797666E+00
 1.2000    2.0839321E-01    3.7709946E+00   -3.7709946E+00
 1.2100    1.9918592E-01    3.6647069E+00   -3.6647069E+00
 1.2200    1.9038254E-01    3.5608743E+00   -3.5608743E+00
 1.2300    1.8196564E-01    3.4594693E+00   -3.4594693E+00
 1.2400    1.7391866E-01    3.3604652E+00   -3.3604652E+00
 1.2500    1.6622576E-01    3.2638351E+00   -3.2638351E+00
 1.2600    1.5887179E-01    3.1695510E+00   -3.1695510E+00
 1.2700    1.5184225E-01    3.0775842E+00   -3.0775842E+00
 1.2800    1.4512327E-01    2.9879056E+00   -2.9879056E+00
 1.2900    1.3870164E-01    2.9004868E+00   -2.9004868E+00
 1.3000    1.3256475E-01    2.8152997E+00   -2.8152997E+00
 1.3100    1.2670053E-01    2.7323158E+00   -2.7323158E+00
 1.3200    1.2109739E-01    2.6515054E+00   -2.6515054E+00
 1.3300    1.1574420E-01    2.5728376E+00   -2.5728376E+00
 1.3400    1.1063022E-01    2.4962797E+00   -2.4962797E+00
 1.3500    1.0574514E-01    2.4217975E+00   -2.4217975E+00
 1.3600    1.0107901E-01    2.3493550E+00   -2.3493550E+00
 1.3700    9.6622272E-02    2.2789156E+00   -2.2789156E+00
 1.3800    9.2365798E-02    2.2104425E+00   -2.2104425E+00
 1.3900    8.8300861E-02    2.1438994E+00   -2.1438994E+00
 1.4000    8.4419118E-02    2.0792502E+00   -2.0792502E+00
 1.4100    8.0712544E-02    2.0164578E+00   -2.0164578E+00
 1.4200    7.7173388E-02    1.9554833E+00   -1.9554833E+00
 1.4300    7.3794139E-02    1.8962859E+00   -1.8962859E+00
 1.4400    7.0567533E-02    1.8388224E+00   -1.8388224E+00
 1.4500    6.7486576E-02    1.7830490E+00   -1.7830490E+00
 1.4600    6.4544573E-02    1.7289216E+00   -1.7289216E+00
 1.4700    6.1735131E-02    1.6763971E+00   -1.6763971E+00
 1.4800    5.9052150E-02    1.6254328E+00   -1.6254328E+00
 1.4900    5.6489791E-02    1.5759860E+00   -1.5759860E+00
 1.5000    5.4042450E-02    1.5280143E+00   -1.5280143E+00
 1.5100    5.1704753E-02    1.4814746E+00   -1.4814746E+00
 1.5200    4.9471559E-02    1.4363247E+00   -1.4363247E+00
 1.5300    4.7337969E-02    1.3925229E+00   -1.3925229E+00
 1.5400    4.5299318E-02    1.3500286E+00   -1.3500286E+00
 1.5500    4.3351162E-02    1.3088022E+00   -1.3088022E+00
 1.5600    4.1489258E-02    1.2688046E+00   -1.2688046E+00
 1.5700    3.9709561E-02    1.2299976E+00   -1.2299976E+00
 1.5800    3.8008214E-02    1.1923438E+00   -1.1923438E+00
 1.5900    3.6381550E-02    1.1558070E+00   -1.1558070E+00
 1.6000    3.4826095E-02    1.1203523E+00   -1.1203523E+00
 1.6100    3.3338559E-02    1.0859465E+00   -1.0859465E+00
 1.6200    3.1915828E-02    1.0525579E+00   -1.0525579E+00
 1.6300    3.0554952E-02    1.0201562E+00   -1.0201562E+00
 1.6400    2.9253127E-02    9.8871210E-01   -9.8871210E-01
 1.6500    2.8007687E-02    9.5819743E-01   -9.5819743E-01
 1.6600    2.6816109E-02    9.2858530E-01   -9.2858530E-01
 1.6700    2.5676004E-02    8.9985025E-01   -8.9985025E-01
 1.6800    2.4585113E-02    8.7196818E-01   -8.7196818E-01
 1.6900    2.3541293E-02    8.4491609E-01   -8.4491609E-01
 1.7000    2.2542500E-02    8.1867171E-01   -8.1867171E-01
 1.7100    2.1586781E-02    7.9321326E-01   -7.9321326E-01
 1.7200    2.0672267E-02    7.6851946E-01   -7.6851946E-01
 1.7300    1.9797177E-02    7.4456967E-01   -7.4456967E-01
 1.7400    1.8959816E-02    7.2134408E-01   -7.2134408E-01
 1.7500    1.8158570E-02    6.9882366E-01   -6.9882366E-01
 1.7600    1.7391904E-02    6.7699012E-01   -6.7699012E-01
 1.7700    1.6658353E-02    6.5582576E-01   -6.5582576E-01
 1.7800    1.5956518E-02    6.3531338E-01   -6.3531338E-01
 1.7900    1.5285057E-02    6.1543613E-01   -6.1543613E-01
 1.8000    1.4642681E-02    5.9617734E-01   -5.9617734E-01
 1.8100    1.4028148E-02    5.7752042E-01   -5.7752042E-01
 1.8200    1.3440262E-02    5.5944883E-01   -5.5944883E-01
 1.8300    1.2877869E-02    5.4194604E-01   -5.4194604E-01
 1.8400    1.2339857E-02    5.2499555E-01   -5.2499555E-01
 1.8500    1.1825152E-02    5.0858091E-01   -5.0858091E-01
 1.8600    1.1332725E-02    4.9268585E-01   -4.9268585E-01
 1.8700    1.0861589E-02    4.7729453E-01   -4.7729453E-01
 1.8800    1.0410807E-02    4.6239162E-01   -4.6239162E-01
 1.8900    9.9794799E-03    4.4796221E-01   -4.4796221E-01
 1.9000    9.5667450E-03    4.3399154E-01   -4.3399154E-01
 1.9100    9.1717668E-03    4.2046476E-01   -4.2046476E-01
 1.9200    8.7937376E-03    4.0736698E-01   -4.0736698E-01
 1.9300    8.4318808E-03    3.9468347E-01   -3.9468347E-01
 1.9400    8.0854556E-03    3.8239994E-01   -3.8239994E-01
 1.9500    7.7537579E-03    3.7050265E-01   -3.7050265E-01
 1.9600    7.4361177E-03    3.5897836E-01   -3.5897836E-01
 1.9700    7.1318957E-03    3.4781419E-01   -3.4781419E-01
 1.9800    6.8404802E-03    3.3699762E-01   -3.3699762E-01
 1.9900    6.5612848E-03    3.2651633E-01   -3.2651633E-01
 2.0000    6.2937486E-03    3.1635831E-01   -3.1635831E-01
 2.0100    6.0373359E-03    3.0651188E-01   -3.0651188E-01
 2.0200    5.7915396E-03    2.9696593E-01   -2.9696593E-01
 2.0300    5.5558829E-03    2.8771004E-01   -2.8771004E-01
 2.0400    5.3299197E-03    2.7873459E-01   -2.7873459E-01
 2.0500    5.1132308E-03    2.7003060E-01   -2.7003060E-01
 2.0600    4.9054193E-03    2.6158958E-01   -2.6158958E-01
 2.0700    4.7061053E-03    2.5340326E-01   -2.5340326E-01
 2.0800    4.5149244E-03    2.4546355E-01   -2.4546355E-01
 2.0900    4.3315281E-03    2.3776262E-01   -2.3776262E-01
 2.1000    4.1555863E-03    2.3029301E-01   -2.3029301E-01
 2.1100    3.9867888E-03    2.2304783E-01   -2.2304783E-01
 2.1200    3.8248443E-03    2.1602069E-01   -2.1602069E-01
 2.1300    3.6694772E-03    2.0920558E-01   -2.0920558E-01
 2.1400    3.5204252E-03    2.0259678E-01   -2.0259678E-01
 2.1500    3.3774381E-03    1.9618879E-01   -1.9618879E-01
 2.1600    3.2402785E-03    1.8997642E-01   -1.8997642E-01
 2.1700    3.1087225E-03    1.8395487E-01   -1.8395487E-01
 2.1800    2.9825588E-03    1.7811966E-01   -1.7811966E-01
 2.1900    2.8615845E-03    1.7246647E-01   -1.7246647E-01
 2.2000    2.7456010E-03    1.6699084E-01   -1.6699084E-01
 2.2100    2.6344110E-03    1.6168805E-01   -1.6168805E-01
 2.2200    2.5278183E-03    1.5655310E-01   -1.5655310E-01
 2.2300    2.4256325E-03    1.5158094E-01   -1.5158094E-01
 2.2400    2.3276721E-03    1.4676676E-01   -1.4676676E-01
 2.2500    2.2337671E-03    1.4210612E-01   -1.4210612E-01
 2.2600    2.1437582E-03    1.3759497E-01   -1.3759497E-01
 2.2700    2.0574930E-03    1.3322936E-01   -1.3322936E-01
 2.2800    1.9748227E-03    1.2900534E-01   -1.2900534E-01
 2.2900    1.8956005E-03    1.2491875E-01   -1.2491875E-01
 2.3000    1.8196813E-03    1.2096532E-01   -1.2096532E-01
 2.3100    1.7469231E-03    1.1714065E-01   -1.1714065E-01
 2.3200    1.6771880E-03    1.1344036E-01   -1.1344036E-01
 2.3300    1.6103433E-03    1.0986015E-01   -1.0986015E-01
 2.3400    1.5462620E-03    1.0639584E-01   -1.0639584E-01
 2.3500    1.4848229E-03    1.0304342E-01   -1.0304342E-01
 2.3600    1.4259108E-03    9.9799006E-02   -9.9799006E-02
 2.3700    1.3694147E-03    9.6658835E-02   -9.6658835E-02
 2.3800    1.3152281E-03    9.3619189E-02   -9.3619189E-02
 2.3900    1.2632480E-03    9.0676401E-02   -9.0676401E-02
 2.4000    1.2133752E-03    8.7826880E-02   -8.7826880E-02
 2.4100    1.1655149E-03    8.5067131E-02   -8.5067131E-02
 2.4200    1.1195764E-03    8.2393764E-02   -8.2393764E-02
 2.4300    1.0754730E-03    7.9803497E-02   -7.9803497E-02
 2.4400    1.0331224E-03    7.7293204E-02   -7.7293204E-02
 2.4500    9.9244770E-04    7.4859972E-02   -7.4859972E-02
 2.4600    9.5337701E-04    7.2501126E-02   -7.2501126E-02
 2.4700    9.1584282E-04    7.0214162E-02   -7.0214162E-02
 2.4800    8.7978040E-04    6.7996649E-02   -6.7996649E-02
 2.4900    8.4512678E-04    6.5846155E-02   -6.5846155E-02
 2.5000    8.1182088E-04    6.3760263E-02   -6.3760263E-02
 2.5100    7.7980446E-04    6.1736644E-02   -6.1736644E-02
 2.5200    7.4902307E-04    5.9773149E-02   -5.9773149E-02
 2.5300    7.1942678E-04    5.7867871E-02   -5.7867871E-02
 2.5400    6.9097017E-04    5.6019160E-02   -5.6019160E-02
 2.5500    6.6361180E-04    5.4225595E-02   -5.4225595E-02
 2.5600    6.3731322E-04    5.2485909E-02   -5.2485909E-02
 2.5700    6.1203786E-04    5.0798911E-02   -5.0798911E-02
 2.5800    5.8775018E-04    4.9163415E-02   -4.9163415E-02
 2.5900    5.6441523E-04    4.7578212E-02   -4.7578212E-02
 2.6000    5.4199872E-04    4.6042068E-02   -4.6042068E-02
 2.6100    5.2046737E-04    4.4553762E-02   -4.4553762E-02
 2.6200    4.9978937E-04    4.3112128E-02   -4.3112128E-02
 2.6300    4.7993487E-04    4.1716096E-02   -4.1716096E-02
 2.6400    4.6087591E-04    4.0364700E-02   -4.0364700E-02
 2.6500    4.4258586E-04    3.9057024E-02   -3.9057024E-02
 2.6600    4.2503840E-04    3.7792124E-02   -3.7792124E-02
 2.6700    4.0820671E-04    3.6568953E-02   -3.6568953E-02
 2.6800    3.9206336E-04    3.5386345E-02   -3.5386345E-02
 2.6900    3.7658090E-04    3.4243072E-02   -3.4243072E-02
 2.7000    3.6173304E-04    3.3137944E-02   -3.3137944E-02
 2.7100    3.4749526E-04    3.2069880E-02   -3.2069880E-02
 2.7200    3.3384472E-04    3.1037889E-02   -3.1037889E-02
 2.7300    3.2075915E-04    3.0040988E-02   -3.0040988E-02
 2.7400    3.0821587E-04    2.9078097E-02   -2.9078097E-02
 2.7500    2.9619141E-04    2.8148010E-02   -2.8148010E-02
 2.7600    2.8466197E-04    2.7249433E-02   -2.7249433E-02
 2.7700    2.7360433E-04    2.6381068E-02   -2.6381068E-02
 2.7800    2.6299643E-04    2.5541671E-02   -2.5541671E-02
 2.7900    2.5281754E-04    2.4730077E-02   -2.4730077E-02
 2.8000    2.4304828E-04    2.3945201E-02   -2.3945201E-02
 2.8100    2.3367055E-04    2.3186035E-02   -2.3186035E-02
 2.8200    2.2466750E-04    2.2451654E-02   -2.2451654E-02
 2.8300    2.1602328E-04    2.1741189E-02   -2.1741189E-02
 2.8400    2.0772255E-04    2.1053786E-02   -2.1053786E-02
 2.8500    1.9974986E-04    2.0388537E-02   -2.0388537E-02
 2.8600    1.9208894E-04    1.9744416E-02   -1.9744416E-02
 2.8700    1.8472255E-04    1.9120250E-02   -1.9120250E-02
 2.8800    1.7763309E-04    1.8514787E-02   -1.8514787E-02
 2.8900    1.7080427E-04    1.7926862E-02   -1.7926862E-02
 2.9000    1.6422273E-04    1.7355580E-02   -1.7355580E-02
 2.9100    1.5787890E-04    1.6800412E-02   -1.6800412E-02
 2.9200    1.5176643E-04    1.6261151E-02   -1.6261151E-02
 2.9300    1.4588076E-04    1.5737767E-02   -1.5737767E-02
 2.9400    1.4021754E-04    1.5230244E-02   -1.5230244E-02
 2.9500    1.3477123E-04    1.4738425E-02   -1.4738425E-02
 2.9600    1.2953421E-04    1.4261913E-02   -1.4261913E-02
 2.9700    1.2449685E-04    1.3800065E-02   -1.3800065E-02
 2.9800    1.1964873E-04    1.3352128E-02   -1.3352128E-02
 2.9900    1.1498050E-04    1.2917440E-02   -1.2917440E-02
 3.0000    1.1048521E-04    1.2495583E-02   -1.2495583E-02
 3.0100    1.0615825E-04    1.2086390E-02   -1.2086390E-02
 3.0200    1.0199612E-04    1.1689809E-02   -1.1689809E-02
 3.0300    9.7995004E-05    1.1305742E-02   -1.1305742E-02
 3.0400    9.4150120E-05    1.0933971E-02   -1.0933971E-02
 3.0500    9.0455927E-05    1.0574177E-02   -1.0574177E-02
 3.0600    8.6906720E-05    1.0226007E-02   -1.0226007E-02
 3.0700    8.3497050E-05    9.8891222E-03   -9.8891222E-03
 3.0800    8.0221821E-05    9.5632126E-03   -9.5632126E-03
 3.0900    7.7076258E-05    9.2479920E-03   -9.2479920E-03
 3.1000    7.4055955E-05    8.9432061E-03   -8.9432061E-03
 3.1100    7.1156992E-05    8.6486480E-03   -8.6486480E-03
 3.1200    6.8375949E-05    8.3641617E-03   -8.3641617E-03
 3.1300    6.5709695E-05    8.0896176E-03   -8.0896176E-03
 3.1400    6.3154990E-05    7.8248646E-03   -7.8248646E-03
 3.1500    6.0708081E-05    7.5696792E-03   -7.5696792E-03
 3.1600    5.8364492E-05    7.3237370E-03   -7.3237370E-03
 3.1700    5.6119142E-05    7.0866243E-03   -7.0866243E-03
 3.1800    5.3966748E-05    6.8578875E-03   -6.8578875E-03
 3.1900    5.1902349E-05    6.6370982E-03   -6.6370982E-03
 3.2000    4.9921693E-05    6.4239052E-03   -6.4239052E-03
 3.2100    4.8021329E-05    6.2180485E-03   -6.2180485E-03
 3.2200    4.6198346E-05    6.0193284E-03   -6.0193284E-03
 3.2300    4.4449879E-05    5.8275431E-03   -5.8275431E-03
 3.2400    4.2772620E-05    5.6424242E-03   -5.6424242E-03
 3.2500    4.1162583E-05    5.4636039E-03   -5.4636039E-03
 3.2600    3.9615288E-05    5.2906360E-03   -5.2906360E-03
 3.2700    3.8126382E-05    5.1230779E-03   -5.1230779E-03
 3.2800    3.6692504E-05    4.9606078E-03   -4.9606078E-03
 3.2900    3.5311920E-05    4.8031150E-03   -4.8031150E-03
 3.3000    3.3984313E-05    4.6506776E-03   -4.6506776E-03
 3.3100    3.2709600E-05    4.5034059E-03   -4.5034059E-03
 3.3200    3.1486473E-05    4.3612406E-03   -4.3612406E-03
 3.3300    3.0311721E-05    4.2238543E-03   -4.2238543E-03
 3.3400    2.9180852E-05    4.0907296E-03   -4.0907296E-03
 3.3500    2.8089435E-05    3.9613433E-03   -3.9613433E-03
 3.3600    2.7034222E-05    3.8353261E-03   -3.8353261E-03
