# total charge: 2.000000 
# r(A)     rho (e/A^3)     4*pi*r^2*rho(e/A)  dip  
 0.0000    8.7068285E+00    0.0000000E+00    1.5957691E+01
 0.0100    8.6740833E+00    1.0900175E-02    1.5867202E+01
 0.0200    8.6327866E+00    4.3393118E-02    1.5598315E+01
 0.0300    8.5813032E+00    9.7052253E-02    1.5158460E+01
 0.0400    8.5179725E+00    1.7126400E-01    1.4559542E+01
 0.0500    8.4410673E+00    2.6518395E-01    1.3817429E+01
 0.0600    8.3487644E+00    3.7768920E-01    1.2951295E+01
 0.0700    8.2393157E+00    5.0733765E-01    1.1982820E+01
 0.0800    8.1114710E+00    6.5236320E-01    1.0935299E+01
 0.0900    7.9649102E+00    8.1072911E-01    9.8326809E+00
 0.1000    7.8003706E+00    9.8022347E-01    8.6986055E+00
 0.1100    7.6193947E+00    1.1585525E+00    7.5555346E+00
 0.1200    7.4239015E+00    1.3433976E+00    6.4240446E+00
 0.1300    7.2158301E+00    1.5324378E+00    5.3223058E+00
 0.1400    6.9969707E+00    1.7233599E+00    4.2657387E+00
 0.1500    6.7689496E+00    1.9138754E+00    3.2668284E+00
 0.1600    6.5332838E+00    2.1017514E+00    2.3350819E+00
 0.1700    6.2914369E+00    2.2848492E+00    1.4771139E+00
 0.1800    6.0448464E+00    2.4611617E+00    6.9684464E-01
 0.1900    5.7949211E+00    2.6288427E+00   -4.2100611E-03
 0.2000    5.5430237E+00    2.7862276E+00   -6.2658895E-01
 0.2100    5.2904588E+00    2.9318503E+00   -1.1725065E+00
 0.2200    5.0384714E+00    3.0644604E+00   -1.6454767E+00
 0.2300    4.7882502E+00    3.1830420E+00   -2.0499605E+00
 0.2400    4.5409250E+00    3.2868257E+00   -2.3910445E+00
 0.2500    4.2975534E+00    3.3752905E+00   -2.6741585E+00
 0.2600    4.0591052E+00    3.4481557E+00   -2.9048370E+00
 0.2700    3.8264572E+00    3.5053732E+00   -3.0885358E+00
 0.2800    3.6004001E+00    3.5471266E+00   -3.2305085E+00
 0.2900    3.3816497E+00    3.5738349E+00   -3.3357336E+00
 0.3000    3.1708484E+00    3.5861451E+00   -3.4088712E+00
 0.3100    2.9685500E+00    3.5849048E+00   -3.4542320E+00
 0.3200    2.7751996E+00    3.5711167E+00   -3.4757532E+00
 0.3300    2.5911236E+00    3.5458950E+00   -3.4769922E+00
 0.3400    2.4165367E+00    3.5104362E+00   -3.4611474E+00
 0.3500    2.2515575E+00    3.4660035E+00   -3.4310962E+00
 0.3600    2.0962195E+00    3.4139065E+00   -3.3894304E+00
 0.3700    1.9504728E+00    3.3554688E+00   -3.3384776E+00
 0.3800    1.8141849E+00    3.2919907E+00   -3.2803128E+00
 0.3900    1.6871475E+00    3.2247210E+00   -3.2167748E+00
 0.4000    1.5690905E+00    3.1548437E+00   -3.1494905E+00
 0.4100    1.4596931E+00    3.0834658E+00   -3.0798954E+00
 0.4200    1.3585884E+00    3.0115934E+00   -3.0092357E+00
 0.4300    1.2653619E+00    2.9400961E+00   -2.9385547E+00
 0.4400    1.1795521E+00    2.8696725E+00   -2.8686748E+00
 0.4500    1.1006565E+00    2.8008296E+00   -2.8001903E+00
 0.4600    1.0281441E+00    2.7338804E+00   -2.7334747E+00
 0.4700    9.6146938E-01    2.6689537E+00   -2.6686989E+00
 0.4800    9.0008627E-01    2.6060124E+00   -2.6058539E+00
 0.4900    8.4346176E-01    2.5448807E+00   -2.5447831E+00
 0.5000    7.9109018E-01    2.4852831E+00   -2.4852236E+00
 0.5100    7.4250754E-01    2.4268955E+00   -2.4268596E+00
 0.5200    6.9730328E-01    2.3693993E+00   -2.3693779E+00
 0.5300    6.5512731E-01    2.3125296E+00   -2.3125169E+00
 0.5400    6.1569066E-01    2.2561083E+00   -2.2561009E+00
 0.5500    5.7875975E-01    2.2000551E+00   -2.2000508E+00
 0.5600    5.4414565E-01    2.1443767E+00   -2.1443742E+00
 0.5700    5.1169142E-01    2.0891408E+00   -2.0891394E+00
 0.5800    4.8126066E-01    2.0344462E+00   -2.0344454E+00
 0.5900    4.5272933E-01    1.9803982E+00   -1.9803977E+00
 0.6000    4.2598130E-01    1.9270940E+00   -1.9270938E+00
 0.6100    4.0090651E-01    1.8746174E+00   -1.8746172E+00
 0.6200    3.7740043E-01    1.8230376E+00   -1.8230376E+00
 0.6300    3.5536392E-01    1.7724104E+00   -1.7724104E+00
 0.6400    3.3470289E-01    1.7227778E+00   -1.7227778E+00
 0.6500    3.1532816E-01    1.6741692E+00   -1.6741691E+00
 0.6600    2.9715534E-01    1.6266019E+00   -1.6266019E+00
 0.6700    2.8010492E-01    1.5800841E+00   -1.5800841E+00
 0.6800    2.6410235E-01    1.5346168E+00   -1.5346168E+00
 0.6900    2.4907790E-01    1.4901955E+00   -1.4901955E+00
 0.7000    2.3496647E-01    1.4468111E+00   -1.4468111E+00
 0.7100    2.2170723E-01    1.4044504E+00   -1.4044504E+00
 0.7200    2.0924339E-01    1.3630965E+00   -1.3630965E+00
 0.7300    1.9752197E-01    1.3227293E+00   -1.3227293E+00
 0.7400    1.8649368E-01    1.2833273E+00   -1.2833273E+00
 0.7500    1.7611284E-01    1.2448683E+00   -1.2448683E+00
 0.7600    1.6633716E-01    1.2073309E+00   -1.2073309E+00
 0.7700    1.5712754E-01    1.1706947E+00   -1.1706947E+00
 0.7800    1.4844788E-01    1.1349405E+00   -1.1349405E+00
 0.7900    1.4026480E-01    1.1000508E+00   -1.1000508E+00
 0.8000    1.3254742E-01    1.0660096E+00   -1.0660096E+00
 0.8100    1.2526712E-01    1.0328018E+00   -1.0328018E+00
 0.8200    1.1839729E-01    1.0004130E+00   -1.0004130E+00
 0.8300    1.1191322E-01    9.6882969E-01   -9.6882969E-01
 0.8400    1.0579199E-01    9.3803967E-01   -9.3803967E-01
 0.8500    1.0001236E-01    9.0803247E-01   -9.0803247E-01
 0.8600    9.4554617E-02    8.7879890E-01   -8.7879890E-01
 0.8700    8.9400344E-02    8.5033011E-01   -8.5033011E-01
 0.8800    8.4532247E-02    8.2261689E-01   -8.2261689E-01
 0.8900    7.9934090E-02    7.9564972E-01   -7.9564972E-01
 0.9000    7.5590675E-02    7.6941935E-01   -7.6941935E-01
 0.9100    7.1487820E-02    7.4391737E-01   -7.4391737E-01
 0.9200    6.7612284E-02    7.1913616E-01   -7.1913616E-01
 0.9300    6.3951648E-02    6.9506833E-01   -6.9506833E-01
 0.9400    6.0494199E-02    6.7170611E-01   -6.7170611E-01
 0.9500    5.7228851E-02    6.4904095E-01   -6.4904095E-01
 0.9600    5.4145090E-02    6.2706334E-01   -6.2706334E-01
 0.9700    5.1232941E-02    6.0576283E-01   -6.0576283E-01
 0.9800    4.8482943E-02    5.8512814E-01   -5.8512814E-01
 0.9900    4.5886123E-02    5.6514725E-01   -5.6514725E-01
 1.0000    4.3433978E-02    5.4580746E-01   -5.4580746E-01
 1.0100    4.1118442E-02    5.2709544E-01   -5.2709544E-01
 1.0200    3.8931867E-02    5.0899725E-01   -5.0899725E-01
 1.0300    3.6867003E-02    4.9149844E-01   -4.9149844E-01
 1.0400    3.4916970E-02    4.7458400E-01   -4.7458400E-01
 1.0500    3.3075234E-02    4.5823831E-01   -4.5823831E-01
 1.0600    3.1335585E-02    4.4244512E-01   -4.4244512E-01
 1.0700    2.9692137E-02    4.2718783E-01   -4.2718783E-01
 1.0800    2.8139325E-02    4.1244975E-01   -4.1244975E-01
 1.0900    2.6671897E-02    3.9821422E-01   -3.9821422E-01
 1.1000    2.5284892E-02    3.8446458E-01   -3.8446458E-01
 1.1100    2.3973619E-02    3.7118414E-01   -3.7118414E-01
 1.1200    2.2733644E-02    3.5835624E-01   -3.5835624E-01
 1.1300    2.1560789E-02    3.4596440E-01   -3.4596440E-01
 1.1400    2.0451122E-02    3.3399250E-01   -3.3399250E-01
 1.1500    1.9400948E-02    3.2242483E-01   -3.2242483E-01
 1.1600    1.8406796E-02    3.1124618E-01   -3.1124618E-01
 1.1700    1.7465412E-02    3.0044185E-01   -3.0044185E-01
 1.1800    1.6573745E-02    2.8999769E-01   -2.8999769E-01
 1.1900    1.5728929E-02    2.7990002E-01   -2.7990002E-01
 1.2000    1.4928266E-02    2.7013553E-01   -2.7013553E-01
 1.2100    1.4169220E-02    2.6069131E-01   -2.6069131E-01
 1.2200    1.3449416E-02    2.5155499E-01   -2.5155499E-01
 1.2300    1.2766640E-02    2.4271504E-01   -2.4271504E-01
 1.2400    1.2118841E-02    2.3416086E-01   -2.3416086E-01
 1.2500    1.1504118E-02    2.2588283E-01   -2.2588283E-01
 1.2600    1.0920704E-02    2.1787209E-01   -2.1787209E-01
 1.2700    1.0366944E-02    2.1012032E-01   -2.1012032E-01
 1.2800    9.8412819E-03    2.0261961E-01   -2.0261961E-01
 1.2900    9.3422540E-03    1.9536239E-01   -1.9536239E-01
 1.3000    8.8684843E-03    1.8834148E-01   -1.8834148E-01
 1.3100    8.4186826E-03    1.8155014E-01   -1.8155014E-01
 1.3200    7.9916409E-03    1.7498212E-01   -1.7498212E-01
 1.3300    7.5862276E-03    1.6863162E-01   -1.6863162E-01
 1.3400    7.2013804E-03    1.6249321E-01   -1.6249321E-01
 1.3500    6.8360972E-03    1.5656174E-01   -1.5656174E-01
 1.3600    6.4894284E-03    1.5083222E-01   -1.5083222E-01
 1.3700    6.1604712E-03    1.4529977E-01   -1.4529977E-01
 1.3800    5.8483655E-03    1.3995955E-01   -1.3995955E-01
 1.3900    5.5522907E-03    1.3480676E-01   -1.3480676E-01
 1.4000    5.2714615E-03    1.2983655E-01   -1.2983655E-01
 1.4100    5.0051260E-03    1.2504407E-01   -1.2504407E-01
 1.4200    4.7525664E-03    1.2042447E-01   -1.2042447E-01
 1.4300    4.5131017E-03    1.1597304E-01   -1.1597304E-01
 1.4400    4.2860866E-03    1.1168524E-01   -1.1168524E-01
 1.4500    4.0709073E-03    1.0755660E-01   -1.0755660E-01
 1.4600    3.8669726E-03    1.0358257E-01   -1.0358257E-01
 1.4700    3.6737060E-03    9.9758275E-02   -9.9758275E-02
 1.4800    3.4905395E-03    9.6078420E-02   -9.6078420E-02
 1.4900    3.3169138E-03    9.2537249E-02   -9.2537249E-02
 1.5000    3.1522862E-03    8.9128793E-02   -8.9128793E-02
 1.5100    2.9961456E-03    8.5847307E-02   -8.5847307E-02
 1.5200    2.8480251E-03    8.2687687E-02   -8.2687687E-02
 1.5300    2.7075040E-03    7.9645608E-02   -7.9645608E-02
 1.5400    2.5741967E-03    7.6717251E-02   -7.6717251E-02
 1.5500    2.4477340E-03    7.3898817E-02   -7.3898817E-02
 1.5600    2.3277497E-03    7.1186123E-02   -7.1186123E-02
 1.5700    2.2138772E-03    6.8574508E-02   -6.8574508E-02
 1.5800    2.1057573E-03    6.6059053E-02   -6.6059053E-02
 1.5900    2.0030489E-03    6.3634945E-02   -6.3634945E-02
 1.6000    1.9054380E-03    6.1297768E-02   -6.1297768E-02
 1.6100    1.8126391E-03    5.9043617E-02   -5.9043617E-02
 1.6200    1.7243925E-03    5.6869055E-02   -5.6869055E-02
 1.6300    1.6404610E-03    5.4771038E-02   -5.4771038E-02
 1.6400    1.5606270E-03    5.2746869E-02   -5.2746869E-02
 1.6500    1.4846892E-03    5.0794105E-02   -5.0794105E-02
 1.6600    1.4124551E-03    4.8910342E-02   -4.8910342E-02
 1.6700    1.3437327E-03    4.7092927E-02   -4.7092927E-02
 1.6800    1.2783275E-03    4.5338855E-02   -4.5338855E-02
 1.6900    1.2160510E-03    4.3645057E-02   -4.3645057E-02
 1.7000    1.1567362E-03    4.2008971E-02   -4.2008971E-02
 1.7100    1.1002482E-03    4.0428976E-02   -4.0428976E-02
 1.7200    1.0464791E-03    3.8904273E-02   -3.8904273E-02
 1.7300    9.9532952E-04    3.7434235E-02   -3.7434235E-02
 1.7400    9.4669095E-04    3.6017751E-02   -3.6017751E-02
 1.7500    9.0044163E-04    3.4653055E-02   -3.4653055E-02
 1.7600    8.5645600E-04    3.3338055E-02   -3.3338055E-02
 1.7700    8.1461501E-04    3.2070727E-02   -3.2070727E-02
 1.7800    7.7480804E-04    3.0849206E-02   -3.0849206E-02
 1.7900    7.3692905E-04    2.9671643E-02   -2.9671643E-02
 1.8000    7.0087696E-04    2.8536234E-02   -2.8536234E-02
 1.8100    6.6656376E-04    2.7441555E-02   -2.7441555E-02
 1.8200    6.3392050E-04    2.6386843E-02   -2.6386843E-02
 1.8300    6.0288888E-04    2.5371685E-02   -2.5371685E-02
 1.8400    5.7340020E-04    2.4395142E-02   -2.4395142E-02
 1.8500    5.4536114E-04    2.3455112E-02   -2.3455112E-02
 1.8600    5.1866354E-04    2.2548698E-02   -2.2548698E-02
 1.8700    4.9321255E-04    2.1673408E-02   -2.1673408E-02
 1.8800    4.6894912E-04    2.0828178E-02   -2.0828178E-02
 1.8900    4.4584857E-04    2.0013399E-02   -2.0013399E-02
 1.9000    4.2390030E-04    1.9230067E-02   -1.9230067E-02
 1.9100    4.0308743E-04    1.8478889E-02   -1.8478889E-02
 1.9200    3.8337843E-04    1.7759879E-02   -1.7759879E-02
 1.9300    3.6472812E-04    1.7072367E-02   -1.7072367E-02
 1.9400    3.4708002E-04    1.6415078E-02   -1.6415078E-02
 1.9500    3.3036732E-04    1.5786148E-02   -1.5786148E-02
 1.9600    3.1451598E-04    1.5183249E-02   -1.5183249E-02
 1.9700    2.9945285E-04    1.4603965E-02   -1.4603965E-02
 1.9800    2.8511706E-04    1.4046349E-02   -1.4046349E-02
 1.9900    2.7146864E-04    1.3509388E-02   -1.3509388E-02
 2.0000    2.5848892E-04    1.2993070E-02   -1.2993070E-02
 2.0100    2.4617094E-04    1.2497950E-02   -1.2497950E-02
 2.0200    2.3450449E-04    1.2024410E-02   -1.2024410E-02
 2.0300    2.2346405E-04    1.1572031E-02   -1.1572031E-02
 2.0400    2.1300668E-04    1.1139441E-02   -1.1139441E-02
 2.0500    2.0307958E-04    1.0724668E-02   -1.0724668E-02
 2.0600    1.9363141E-04    1.0325714E-02   -1.0325714E-02
 2.0700    1.8462009E-04    9.9409873E-03   -9.9409873E-03
 2.0800    1.7601454E-04    9.5694081E-03   -9.5694081E-03
 2.0900    1.6779177E-04    9.2102854E-03   -9.2102854E-03
 2.1000    1.5993310E-04    8.8631239E-03   -8.8631239E-03
 2.1100    1.5242187E-04    8.5275065E-03   -8.5275065E-03
 2.1200    1.4524310E-04    8.2030827E-03   -8.2030827E-03
 2.1300    1.3838412E-04    7.8896064E-03   -7.8896064E-03
 2.1400    1.3183441E-04    7.5869321E-03   -7.5869321E-03
 2.1500    1.2558358E-04    7.2949051E-03   -7.2949051E-03
 2.1600    1.1961804E-04    7.0131650E-03   -7.0131650E-03
 2.1700    1.1391860E-04    6.7409947E-03   -6.7409947E-03
 2.1800    1.0846208E-04    6.4774011E-03   -6.4774011E-03
 2.1900    1.0322788E-04    6.2215001E-03   -6.2215001E-03
 2.2000    9.8205909E-05    5.9730045E-03   -5.9730045E-03
 2.2100    9.3399311E-05    5.7324211E-03   -5.7324211E-03
 2.2200    8.8818319E-05    5.5007051E-03   -5.5007051E-03
 2.2300    8.4468799E-05    5.2785654E-03   -5.2785654E-03
 2.2400    8.0344090E-05    5.0659376E-03   -5.0659376E-03
 2.2500    7.6426096E-05    4.8620181E-03   -4.8620181E-03
 2.2600    7.2694169E-05    4.6658022E-03   -4.6658022E-03
 2.2700    6.9134844E-05    4.4767059E-03   -4.4767059E-03
 2.2800    6.5745813E-05    4.2948466E-03   -4.2948466E-03
 2.2900    6.2532190E-05    4.1208278E-03   -4.1208278E-03
 2.3000    5.9498280E-05    3.9552137E-03   -3.9552137E-03
 2.3100    5.6640719E-05    3.7980666E-03   -3.7980666E-03
 2.3200    5.3947306E-05    3.6488465E-03   -3.6488465E-03
 2.3300    5.1401339E-05    3.5066800E-03   -3.5066800E-03
 2.3400    4.8987459E-05    3.3707496E-03   -3.3707496E-03
 2.3500    4.6695030E-05    3.2405315E-03   -3.2405315E-03
 2.3600    4.4517989E-05    3.1157988E-03   -3.1157988E-03
 2.3700    4.2452655E-05    2.9964802E-03   -2.9964802E-03
 2.3800    4.0495469E-05    2.8825060E-03   -2.8825060E-03
 2.3900    3.8641651E-05    2.7737118E-03   -2.7737118E-03
 2.4000    3.6884726E-05    2.6698011E-03   -2.6698011E-03
 2.4100    3.5216416E-05    2.5703313E-03   -2.5703313E-03
 2.4200    3.3626675E-05    2.4747112E-03   -2.4747112E-03
 2.4300    3.2104187E-05    2.3822322E-03   -2.3822322E-03
 2.4400    3.0637615E-05    2.2921576E-03   -2.2921576E-03
 2.4500    2.9217174E-05    2.2038409E-03   -2.2038409E-03
 2.4600    2.7835830E-05    2.1168216E-03   -2.1168216E-03
 2.4700    2.6490335E-05    2.0309126E-03   -2.0309126E-03
 2.4800    2.5182982E-05    1.9463475E-03   -1.9463475E-03
 2.4900    2.3923508E-05    1.8639464E-03   -1.8639464E-03
 2.5000    2.2728333E-05    1.7850791E-03   -1.7850791E-03
 2.5100    2.1614768E-05    1.7112280E-03   -1.7112280E-03
 2.5200    2.0592174E-05    1.6432859E-03   -1.6432859E-03
 2.5300    1.9655981E-05    1.5810501E-03   -1.5810501E-03
 2.5400    1.8789177E-05    1.5232986E-03   -1.5232986E-03
 2.5500    1.7970180E-05    1.4683942E-03   -1.4683942E-03
 2.5600    1.7181619E-05    1.4149917E-03   -1.4149917E-03
 2.5700    1.6415099E-05    1.3624470E-03   -1.3624470E-03
 2.5800    1.5670798E-05    1.3108119E-03   -1.3108119E-03
 2.5900    1.4953968E-05    1.2605667E-03   -1.2605667E-03
 2.6000    1.4271003E-05    1.2123026E-03   -1.2123026E-03
 2.6100    1.3626536E-05    1.1664775E-03   -1.1664775E-03
 2.6200    1.3021587E-05    1.1232499E-03   -1.1232499E-03
 2.6300    1.2452503E-05    1.0823756E-03   -1.0823756E-03
 2.6400    1.1911119E-05    1.0432065E-03   -1.0432065E-03
 2.6500    1.1387007E-05    1.0048730E-03   -1.0048730E-03
 2.6600    1.0871699E-05    9.6665291E-04   -9.6665291E-04
 2.6700    1.0362917E-05    9.2835565E-04   -9.2835565E-04
 2.6800    9.8658136E-06    8.9045578E-04   -8.9045578E-04
 2.6900    9.3897733E-06    8.5382631E-04   -8.5382631E-04
 2.7000    8.9423394E-06    8.1919736E-04   -8.1919736E-04
 2.7100    8.5240901E-06    7.8667704E-04   -7.8667704E-04
 2.7200    8.1278351E-06    7.5565326E-04   -7.5565326E-04
 2.7300    7.7426876E-06    7.2514841E-04   -7.2514841E-04
 2.7400    7.3602420E-06    6.9438940E-04   -6.9438940E-04
 2.7500    6.9787791E-06    6.6321556E-04   -6.6321556E-04
 2.7600    6.6032956E-06    6.3210433E-04   -6.3210433E-04
 2.7700    6.2424393E-06    6.0189915E-04   -6.0189915E-04
 2.7800    5.9049533E-06    5.7347689E-04   -5.7347689E-04
 2.7900    5.5971129E-06    5.4749775E-04   -5.4749775E-04
 2.8000    5.3210946E-06    5.2423608E-04   -5.2423608E-04
 2.8100    5.0741159E-06    5.0348077E-04   -5.0348077E-04
 2.8200    4.8488097E-06    4.8455516E-04   -4.8455516E-04
 2.8300    4.6351331E-06    4.6649280E-04   -4.6649280E-04
 2.8400    4.4233612E-06    4.4833118E-04   -4.4833118E-04
 2.8500    4.2074438E-06    4.2945524E-04   -4.2945524E-04
 2.8600    3.9880457E-06    4.0992278E-04   -4.0992278E-04
 2.8700    3.7740034E-06    3.9063931E-04   -3.9063931E-04
 2.8800    3.5802928E-06    3.7317573E-04   -3.7317573E-04
 2.8900    3.4218760E-06    3.5914499E-04   -3.5914499E-04
 2.9000    3.3060634E-06    3.4939529E-04   -3.4939529E-04
 2.9100    3.2280556E-06    3.4350799E-04   -3.4350799E-04
 2.9200    3.1724097E-06    3.3991070E-04   -3.3991070E-04
 2.9300    3.1191591E-06    3.3649811E-04   -3.3649811E-04
 2.9400    3.0511852E-06    3.3141571E-04   -3.3141571E-04
 2.9500    2.9600197E-06    3.2370432E-04   -3.2370432E-04
 2.9600    2.8481856E-06    3.1358955E-04   -3.1358955E-04
 2.9700    2.7267327E-06    3.0224932E-04   -3.0224932E-04
 2.9800    2.6084646E-06    2.9109003E-04   -2.9109003E-04
 2.9900    2.5004721E-06    2.8091456E-04   -2.8091456E-04
 3.0000    2.4008051E-06    2.7152466E-04   -2.7152466E-04
 3.0100    2.3012671E-06    2.6200518E-04   -2.6200518E-04
 3.0200    2.1936730E-06    2.5141758E-04   -2.5141758E-04
 3.0300    2.0748078E-06    2.3937180E-04   -2.3937180E-04
 3.0400    1.9473465E-06    2.2615191E-04   -2.2615191E-04
 3.0500    1.8176356E-06    2.1247917E-04   -2.1247917E-04
 3.0600    1.6929318E-06    1.9920130E-04   -1.9920130E-04
 3.0700    1.5796059E-06    1.8708345E-04   -1.8708345E-04
 3.0800    1.4820488E-06    1.7667447E-04   -1.7667447E-04
 3.0900    1.4016894E-06    1.6818166E-04   -1.6818166E-04
 3.1000    1.3364601E-06    1.6139470E-04   -1.6139470E-04
 3.1100    1.2815080E-06    1.5575857E-04   -1.5575857E-04
 3.1200    1.2311985E-06    1.5060768E-04   -1.5060768E-04
 3.1300    1.1813933E-06    1.4544307E-04   -1.4544307E-04
 3.1400    1.1307778E-06    1.4010268E-04   -1.4010268E-04
 3.1500    1.0807604E-06    1.3475982E-04   -1.3475982E-04
 3.1600    1.0343623E-06    1.2979462E-04   -1.2979462E-04
 3.1700    9.9482737E-07    1.2562501E-04   -1.2562501E-04
 3.1800    9.6436371E-07    1.2254764E-04   -1.2254764E-04
 3.1900    9.4306342E-07    1.2059579E-04   -1.2059579E-04
 3.2000    9.2821401E-07    1.1944224E-04   -1.1944224E-04
 3.2100    9.1468017E-07    1.1843749E-04   -1.1843749E-04
 3.2200    8.9689447E-07    1.1685921E-04   -1.1685921E-04
 3.2300    8.7182300E-07    1.1429921E-04   -1.1429921E-04
 3.2400    8.4105697E-07    1.1094949E-04   -1.1094949E-04
 3.2500    8.1036861E-07    1.0756208E-04   -1.0756208E-04
 3.2600    7.8670145E-07    1.0506426E-04   -1.0506426E-04
 3.2700    7.7419833E-07    1.0402976E-04   -1.0402976E-04
 3.2800    7.7137255E-07    1.0428497E-04   -1.0428497E-04
 3.2900    7.7101455E-07    1.0487313E-04   -1.0487313E-04
 3.3000    7.6327950E-07    1.0445310E-04   -1.0445310E-04
 3.3100    7.4064183E-07    1.0197039E-04   -1.0197039E-04
 3.3200    7.0175115E-07    9.7200649E-05   -9.7200649E-05
 3.3300    6.5155022E-07    9.0791716E-05   -9.0791716E-05
 3.3400    5.9789659E-07    8.3816376E-05   -8.3816376E-05
 3.3500    5.4760448E-07    7.7226522E-05   -7.7226522E-05
 3.3600    5.0444695E-07    7.1565534E-05   -7.1565534E-05
