# total charge: 8.000000 
# r(A)     rho (e/A^3)     4*pi*r^2*rho(e/A)  dip  
 0.0000    4.6179713E+00    0.0000000E+00    6.3830765E+01
 0.0100    4.6146937E+00    5.7989952E-03    6.3506609E+01
 0.0200    4.6105520E+00    2.3175162E-02    6.2543656E+01
 0.0300    4.6053710E+00    5.2085519E-02    6.0969965E+01
 0.0400    4.5989630E+00    9.2467638E-02    5.8830755E+01
 0.0500    4.5911205E+00    1.4423430E-01    5.6186218E+01
 0.0600    4.5816116E+00    2.0726722E-01    5.3108669E+01
 0.0700    4.5701986E+00    2.8141096E-01    4.9679218E+01
 0.0800    4.5566838E+00    3.6647025E-01    4.5984178E+01
 0.0900    4.5409549E+00    4.6221291E-01    4.2111427E+01
 0.1000    4.5229991E+00    5.6837683E-01    3.8146939E+01
 0.1100    4.5028778E+00    6.8467645E-01    3.4171672E+01
 0.1200    4.4806830E+00    8.1080529E-01    3.0258964E+01
 0.1300    4.4565024E+00    9.4643482E-01    2.6472540E+01
 0.1400    4.4304032E+00    1.0912121E+00    2.2865182E+01
 0.1500    4.4024349E+00    1.2447592E+00    1.9478056E+01
 0.1600    4.3726407E+00    1.4066745E+00    1.6340659E+01
 0.1700    4.3410677E+00    1.5765374E+00    1.3471315E+01
 0.1800    4.3077691E+00    1.7539100E+00    1.0878115E+01
 0.1900    4.2727977E+00    1.9383375E+00    8.5601929E+00
 0.2000    4.2361962E+00    2.1293445E+00    6.5092102E+00
 0.2100    4.1979938E+00    2.3264314E+00    4.7109440E+00
 0.2200    4.1582113E+00    2.5290754E+00    3.1468594E+00
 0.2300    4.1168710E+00    2.7367353E+00    1.7955907E+00
 0.2400    4.0740037E+00    2.9488573E+00    6.3426750E-01
 0.2500    4.0296511E+00    3.1648806E+00   -3.6035249E-01
 0.2600    3.9838633E+00    3.3842387E+00   -1.2109637E+00
 0.2700    3.9366947E+00    3.6063604E+00   -1.9390109E+00
 0.2800    3.8881994E+00    3.8306675E+00   -2.5641952E+00
 0.2900    3.8384286E+00    4.0565733E+00   -3.1041681E+00
 0.3000    3.7874302E+00    4.2834826E+00   -3.5743869E+00
 0.3100    3.7352506E+00    4.5107940E+00   -3.9881030E+00
 0.3200    3.6819379E+00    4.7379043E+00   -4.3564501E+00
 0.3300    3.6275433E+00    4.9642124E+00   -4.6886013E+00
 0.3400    3.5721212E+00    5.1891220E+00   -4.9919669E+00
 0.3500    3.5157273E+00    5.4120417E+00   -5.2724125E+00
 0.3600    3.4584186E+00    5.6323862E+00   -5.5344819E+00
 0.3700    3.4002526E+00    5.8495774E+00   -5.7816126E+00
 0.3800    3.3412880E+00    6.0630474E+00   -6.0163359E+00
 0.3900    3.2815839E+00    6.2722390E+00   -6.2404541E+00
 0.4000    3.2211997E+00    6.4766062E+00   -6.4551934E+00
 0.4100    3.1601936E+00    6.6756148E+00   -6.6613329E+00
 0.4200    3.0986239E+00    6.8687436E+00   -6.8593127E+00
 0.4300    3.0365488E+00    7.0554878E+00   -7.0493221E+00
 0.4400    2.9740278E+00    7.2353617E+00   -7.2313709E+00
 0.4500    2.9111212E+00    7.4079012E+00   -7.4053438E+00
 0.4600    2.8478899E+00    7.5726647E+00   -7.5710422E+00
 0.4700    2.7843950E+00    7.7292333E+00   -7.7282142E+00
 0.4800    2.7206970E+00    7.8772116E+00   -7.8765778E+00
 0.4900    2.6568563E+00    8.0162284E+00   -8.0158381E+00
 0.5000    2.5929326E+00    8.1459380E+00   -8.1457001E+00
 0.5100    2.5289854E+00    8.2660216E+00   -8.2658780E+00
 0.5200    2.4650734E+00    8.3761877E+00   -8.3761019E+00
 0.5300    2.4012549E+00    8.4761741E+00   -8.4761234E+00
 0.5400    2.3375878E+00    8.5657485E+00   -8.5657188E+00
 0.5500    2.2741294E+00    8.6447097E+00   -8.6446925E+00
 0.5600    2.2109364E+00    8.7128886E+00   -8.7128787E+00
 0.5700    2.1480647E+00    8.7701484E+00   -8.7701428E+00
 0.5800    2.0855698E+00    8.8163855E+00   -8.8163823E+00
 0.5900    2.0235056E+00    8.8515292E+00   -8.8515274E+00
 0.6000    1.9619256E+00    8.8755421E+00   -8.8755411E+00
 0.6100    1.9008814E+00    8.8884196E+00   -8.8884191E+00
 0.6200    1.8404235E+00    8.8901895E+00   -8.8901893E+00
 0.6300    1.7806008E+00    8.8809113E+00   -8.8809112E+00
 0.6400    1.7214604E+00    8.8606757E+00   -8.8606756E+00
 0.6500    1.6630477E+00    8.8296054E+00   -8.8296054E+00
 0.6600    1.6054072E+00    8.7878561E+00   -8.7878561E+00
 0.6700    1.5485819E+00    8.7356184E+00   -8.7356184E+00
 0.6800    1.4926142E+00    8.6731179E+00   -8.6731179E+00
 0.6900    1.4375447E+00    8.6006132E+00   -8.6006132E+00
 0.7000    1.3834125E+00    8.5183923E+00   -8.5183923E+00
 0.7100    1.3302538E+00    8.4267689E+00   -8.4267689E+00
 0.7200    1.2781027E+00    8.3260809E+00   -8.3260809E+00
 0.7300    1.2269908E+00    8.2166901E+00   -8.2166901E+00
 0.7400    1.1769479E+00    8.0989837E+00   -8.0989837E+00
 0.7500    1.1280016E+00    7.9733736E+00   -7.9733736E+00
 0.7600    1.0801781E+00    7.8402949E+00   -7.8402949E+00
 0.7700    1.0335010E+00    7.7002034E+00   -7.7002034E+00
 0.7800    9.8799205E-01    7.5535746E+00   -7.5535746E+00
 0.7900    9.4367113E-01    7.4009031E+00   -7.4009031E+00
 0.8000    9.0055593E-01    7.2427006E+00   -7.2427006E+00
 0.8100    8.5866191E-01    7.0794921E+00   -7.0794921E+00
 0.8200    8.1800195E-01    6.9118119E+00   -6.9118119E+00
 0.8300    7.7858647E-01    6.7402018E+00   -6.7402018E+00
 0.8400    7.4042370E-01    6.5652119E+00   -6.5652119E+00
 0.8500    7.0351990E-01    6.3873998E+00   -6.3873998E+00
 0.8600    6.6787918E-01    6.2073277E+00   -6.2073277E+00
 0.8700    6.3350309E-01    6.0255557E+00   -6.0255557E+00
 0.8800    6.0039043E-01    5.8426379E+00   -5.8426379E+00
 0.8900    5.6853749E-01    5.6591211E+00   -5.6591211E+00
 0.9000    5.3793849E-01    5.4755469E+00   -5.4755469E+00
 0.9100    5.0858594E-01    5.2924528E+00   -5.2924528E+00
 0.9200    4.8047070E-01    5.1103710E+00   -5.1103710E+00
 0.9300    4.5358175E-01    4.9298231E+00   -4.9298231E+00
 0.9400    4.2790587E-01    4.7513149E+00   -4.7513149E+00
 0.9500    4.0342752E-01    4.5753318E+00   -4.5753318E+00
 0.9600    3.8012884E-01    4.4023357E+00   -4.4023357E+00
 0.9700    3.5798992E-01    4.2327647E+00   -4.2327647E+00
 0.9800    3.3698905E-01    4.0670340E+00   -4.0670340E+00
 0.9900    3.1710304E-01    3.9055361E+00   -3.9055361E+00
 1.0000    2.9830732E-01    3.7486404E+00   -3.7486404E+00
 1.0100    2.8057593E-01    3.5966902E+00   -3.5966902E+00
 1.0200    2.6388137E-01    3.4499987E+00   -3.4499987E+00
 1.0300    2.4819449E-01    3.3088453E+00   -3.3088453E+00
 1.0400    2.3348457E-01    3.1734724E+00   -3.1734724E+00
 1.0500    2.1971938E-01    3.0440854E+00   -3.0440854E+00
 1.0600    2.0686549E-01    2.9208527E+00   -2.9208527E+00
 1.0700    1.9488851E-01    2.8039074E+00   -2.8039074E+00
 1.0800    1.8375329E-01    2.6933482E+00   -2.6933482E+00
 1.0900    1.7342397E-01    2.5892381E+00   -2.5892381E+00
 1.1000    1.6386396E-01    2.4916020E+00   -2.4916020E+00
 1.1100    1.5503581E-01    2.4004234E+00   -2.4004234E+00
 1.1200    1.4690131E-01    2.3156428E+00   -2.3156428E+00
 1.1300    1.3942154E-01    2.2371579E+00   -2.2371579E+00
 1.1400    1.3255716E-01    2.1648248E+00   -2.1648248E+00
 1.1500    1.2626857E-01    2.0984606E+00   -2.0984606E+00
 1.1600    1.2051611E-01    2.0378441E+00   -2.0378441E+00
 1.1700    1.1526006E-01    1.9827157E+00   -1.9827157E+00
 1.1800    1.1046070E-01    1.9327767E+00   -1.9327767E+00
 1.1900    1.0607829E-01    1.8876884E+00   -1.8876884E+00
 1.2000    1.0207321E-01    1.8470733E+00   -1.8470733E+00
 1.2100    9.8406138E-02    1.8105178E+00   -1.8105178E+00
 1.2200    9.5038391E-02    1.7775777E+00   -1.7775777E+00
 1.2300    9.1932350E-02    1.7477868E+00   -1.7477868E+00
 1.2400    8.9052095E-02    1.7206692E+00   -1.7206692E+00
 1.2500    8.6364287E-02    1.6957588E+00   -1.6957588E+00
 1.2600    8.3839216E-02    1.6726234E+00   -1.6726234E+00
 1.2700    8.1451780E-02    1.6508890E+00   -1.6508890E+00
 1.2800    7.9182075E-02    1.6302593E+00   -1.6302593E+00
 1.2900    7.7015340E-02    1.6105215E+00   -1.6105215E+00
 1.3000    7.4941271E-02    1.5915402E+00   -1.5915402E+00
 1.3100    7.2952938E-02    1.5732409E+00   -1.5732409E+00
 1.3200    7.1045637E-02    1.5555900E+00   -1.5555900E+00
 1.3300    6.9215947E-02    1.5385773E+00   -1.5385773E+00
 1.3400    6.7461067E-02    1.5222033E+00   -1.5222033E+00
 1.3500    6.5778442E-02    1.5064717E+00   -1.5064717E+00
 1.3600    6.4165570E-02    1.4913849E+00   -1.4913849E+00
 1.3700    6.2619938E-02    1.4769427E+00   -1.4769427E+00
 1.3800    6.1139015E-02    1.4631420E+00   -1.4631420E+00
 1.3900    5.9720267E-02    1.4499773E+00   -1.4499773E+00
 1.4000    5.8361179E-02    1.4374409E+00   -1.4374409E+00
 1.4100    5.7059255E-02    1.4255229E+00   -1.4255229E+00
 1.4200    5.5812004E-02    1.4142109E+00   -1.4142109E+00
 1.4300    5.4616942E-02    1.4034900E+00   -1.4034900E+00
 1.4400    5.3471593E-02    1.3933428E+00   -1.3933428E+00
 1.4500    5.2373515E-02    1.3837499E+00   -1.3837499E+00
 1.4600    5.1320319E-02    1.3746905E+00   -1.3746905E+00
 1.4700    5.0309680E-02    1.3661428E+00   -1.3661428E+00
 1.4800    4.9339337E-02    1.3580839E+00   -1.3580839E+00
 1.4900    4.8407092E-02    1.3504901E+00   -1.3504901E+00
 1.5000    4.7510807E-02    1.3433364E+00   -1.3433364E+00
 1.5100    4.6648409E-02    1.3365974E+00   -1.3365974E+00
 1.5200    4.5817908E-02    1.3302470E+00   -1.3302470E+00
 1.5300    4.5017401E-02    1.3242596E+00   -1.3242596E+00
 1.5400    4.4245071E-02    1.3186095E+00   -1.3186095E+00
 1.5500    4.3499187E-02    1.3132711E+00   -1.3132711E+00
 1.5600    4.2778095E-02    1.3082192E+00   -1.3082192E+00
 1.5700    4.2080214E-02    1.3034282E+00   -1.3034282E+00
 1.5800    4.1404040E-02    1.2988732E+00   -1.2988732E+00
 1.5900    4.0748151E-02    1.2945297E+00   -1.2945297E+00
 1.6000    4.0111213E-02    1.2903741E+00   -1.2903741E+00
 1.6100    3.9491978E-02    1.2863836E+00   -1.2863836E+00
 1.6200    3.8889279E-02    1.2825367E+00   -1.2825367E+00
 1.6300    3.8302026E-02    1.2788124E+00   -1.2788124E+00
 1.6400    3.7729199E-02    1.2751907E+00   -1.2751907E+00
 1.6500    3.7169844E-02    1.2716526E+00   -1.2716526E+00
 1.6600    3.6623076E-02    1.2681799E+00   -1.2681799E+00
 1.6700    3.6088081E-02    1.2647556E+00   -1.2647556E+00
 1.6800    3.5564112E-02    1.2613639E+00   -1.2613639E+00
 1.6900    3.5050486E-02    1.2579904E+00   -1.2579904E+00
 1.7000    3.4546572E-02    1.2546213E+00   -1.2546213E+00
 1.7100    3.4051789E-02    1.2512440E+00   -1.2512440E+00
 1.7200    3.3565601E-02    1.2478465E+00   -1.2478465E+00
 1.7300    3.3087519E-02    1.2444180E+00   -1.2444180E+00
 1.7400    3.2617106E-02    1.2409486E+00   -1.2409486E+00
 1.7500    3.2153974E-02    1.2374299E+00   -1.2374299E+00
 1.7600    3.1697778E-02    1.2338547E+00   -1.2338547E+00
 1.7700    3.1248205E-02    1.2302163E+00   -1.2302163E+00
 1.7800    3.0804969E-02    1.2265087E+00   -1.2265087E+00
 1.7900    3.0367799E-02    1.2227262E+00   -1.2227262E+00
 1.8000    2.9936451E-02    1.2188638E+00   -1.2188638E+00
 1.8100    2.9510714E-02    1.2149173E+00   -1.2149173E+00
 1.8200    2.9090409E-02    1.2108838E+00   -1.2108838E+00
 1.8300    2.8675382E-02    1.2067610E+00   -1.2067610E+00
 1.8400    2.8265486E-02    1.2025467E+00   -1.2025467E+00
 1.8500    2.7860570E-02    1.1982386E+00   -1.1982386E+00
 1.8600    2.7460485E-02    1.1938340E+00   -1.1938340E+00
 1.8700    2.7065103E-02    1.1893311E+00   -1.1893311E+00
 1.8800    2.6674324E-02    1.1847289E+00   -1.1847289E+00
 1.8900    2.6288077E-02    1.1800280E+00   -1.1800280E+00
 1.9000    2.5906301E-02    1.1752289E+00   -1.1752289E+00
 1.9100    2.5528927E-02    1.1703322E+00   -1.1703322E+00
 1.9200    2.5155883E-02    1.1653380E+00   -1.1653380E+00
 1.9300    2.4787093E-02    1.1602460E+00   -1.1602460E+00
 1.9400    2.4422492E-02    1.1550567E+00   -1.1550567E+00
 1.9500    2.4062032E-02    1.1497711E+00   -1.1497711E+00
 1.9600    2.3705674E-02    1.1443907E+00   -1.1443907E+00
 1.9700    2.3353384E-02    1.1389172E+00   -1.1389172E+00
 1.9800    2.3005115E-02    1.1333516E+00   -1.1333516E+00
 1.9900    2.2660803E-02    1.1276941E+00   -1.1276941E+00
 2.0000    2.2320367E-02    1.1219440E+00   -1.1219440E+00
 2.0100    2.1983717E-02    1.1161000E+00   -1.1161000E+00
 2.0200    2.1650778E-02    1.1101614E+00   -1.1101614E+00
 2.0300    2.1321497E-02    1.1041285E+00   -1.1041285E+00
 2.0400    2.0995844E-02    1.0980030E+00   -1.0980030E+00
 2.0500    2.0673805E-02    1.0917872E+00   -1.0917872E+00
 2.0600    2.0355365E-02    1.0854834E+00   -1.0854834E+00
 2.0700    2.0040498E-02    1.0790934E+00   -1.0790934E+00
 2.0800    1.9729169E-02    1.0726186E+00   -1.0726186E+00
 2.0900    1.9421341E-02    1.0660600E+00   -1.0660600E+00
 2.1000    1.9116981E-02    1.0594190E+00   -1.0594190E+00
 2.1100    1.8816070E-02    1.0526978E+00   -1.0526978E+00
 2.1200    1.8518596E-02    1.0458988E+00   -1.0458988E+00
 2.1300    1.8224550E-02    1.0390247E+00   -1.0390247E+00
 2.1400    1.7933916E-02    1.0320781E+00   -1.0320781E+00
 2.1500    1.7646673E-02    1.0250608E+00   -1.0250608E+00
 2.1600    1.7362785E-02    1.0179742E+00   -1.0179742E+00
 2.1700    1.7082205E-02    1.0108187E+00   -1.0108187E+00
 2.1800    1.6804878E-02    1.0035944E+00   -1.0035944E+00
 2.1900    1.6530755E-02    9.9630147E-01   -9.9630147E-01
 2.2000    1.6259810E-02    9.8894170E-01   -9.8894170E-01
 2.2100    1.5992048E-02    9.8151853E-01   -9.8151853E-01
 2.2200    1.5727498E-02    9.7403697E-01   -9.7403697E-01
 2.2300    1.5466193E-02    9.6650259E-01   -9.6650259E-01
 2.2400    1.5208161E-02    9.5892050E-01   -9.5892050E-01
 2.2500    1.4953411E-02    9.5129488E-01   -9.5129488E-01
 2.2600    1.4701938E-02    9.4362911E-01   -9.4362911E-01
 2.2700    1.4453732E-02    9.3592613E-01   -9.3592613E-01
 2.2800    1.4208779E-02    9.2818880E-01   -9.2818880E-01
 2.2900    1.3967062E-02    9.2041970E-01   -9.2041970E-01
 2.3000    1.3728558E-02    9.1262102E-01   -9.1262102E-01
 2.3100    1.3493237E-02    9.0479456E-01   -9.0479456E-01
 2.3200    1.3261067E-02    8.9694187E-01   -8.9694187E-01
 2.3300    1.3032017E-02    8.8906467E-01   -8.8906467E-01
 2.3400    1.2806063E-02    8.8116497E-01   -8.8116497E-01
 2.3500    1.2583191E-02    8.7324554E-01   -8.7324554E-01
 2.3600    1.2363401E-02    8.6531021E-01   -8.6531021E-01
 2.3700    1.2146709E-02    8.5736386E-01   -8.5736386E-01
 2.3800    1.1933134E-02    8.4941178E-01   -8.4941178E-01
 2.3900    1.1722683E-02    8.4145848E-01   -8.4145848E-01
 2.4000    1.1515340E-02    8.3350674E-01   -8.3350674E-01
 2.4100    1.1311063E-02    8.2555758E-01   -8.2555758E-01
 2.4200    1.1109799E-02    8.1761116E-01   -8.1761116E-01
 2.4300    1.0911501E-02    8.0966787E-01   -8.0966787E-01
 2.4400    1.0716133E-02    8.0172900E-01   -8.0172900E-01
 2.4500    1.0523672E-02    7.9379680E-01   -7.9379680E-01
 2.4600    1.0334107E-02    7.8587422E-01   -7.8587422E-01
 2.4700    1.0147430E-02    7.7796456E-01   -7.7796456E-01
 2.4800    9.9636305E-03    7.7007113E-01   -7.7007113E-01
 2.4900    9.7826949E-03    7.6219671E-01   -7.6219671E-01
 2.5000    9.6045930E-03    7.5434297E-01   -7.5434297E-01
 2.5100    9.4292785E-03    7.4651024E-01   -7.4651024E-01
 2.5200    9.2566946E-03    7.3869793E-01   -7.3869793E-01
 2.5300    9.0867871E-03    7.3090555E-01   -7.3090555E-01
 2.5400    8.9195174E-03    7.2313379E-01   -7.2313379E-01
 2.5500    8.7548672E-03    7.1538493E-01   -7.1538493E-01
 2.5600    8.5928326E-03    7.0766244E-01   -7.0766244E-01
 2.5700    8.4334078E-03    6.9996965E-01   -6.9996965E-01
 2.5800    8.2765694E-03    6.9230845E-01   -6.9230845E-01
 2.5900    8.1222732E-03    6.8467897E-01   -6.8467897E-01
 2.6000    7.9704659E-03    6.7708044E-01   -6.7708044E-01
 2.6100    7.8211019E-03    6.6951270E-01   -6.6951270E-01
 2.6200    7.6741522E-03    6.6197693E-01   -6.6197693E-01
 2.6300    7.5295945E-03    6.5447483E-01   -6.5447483E-01
 2.6400    7.3873961E-03    6.4700719E-01   -6.4700719E-01
 2.6500    7.2475068E-03    6.3957318E-01   -6.3957318E-01
 2.6600    7.1098737E-03    6.3217166E-01   -6.3217166E-01
 2.6700    6.9744679E-03    6.2480352E-01   -6.2480352E-01
 2.6800    6.8412970E-03    6.1747289E-01   -6.1747289E-01
 2.6900    6.7103926E-03    6.1018616E-01   -6.1018616E-01
 2.7000    6.5817802E-03    6.0294926E-01   -6.0294926E-01
 2.7100    6.4554537E-03    5.9576532E-01   -5.9576532E-01
 2.7200    6.3313725E-03    5.8863426E-01   -5.8863426E-01
 2.7300    6.2094776E-03    5.8155424E-01   -5.8155424E-01
 2.7400    6.0897151E-03    5.7452372E-01   -5.7452372E-01
 2.7500    5.9720474E-03    5.6754264E-01   -5.6754264E-01
 2.7600    5.8564475E-03    5.6061186E-01   -5.6061186E-01
 2.7700    5.7428860E-03    5.5373197E-01   -5.5373197E-01
 2.7800    5.6313247E-03    5.4690265E-01   -5.4690265E-01
 2.7900    5.5217233E-03    5.4012330E-01   -5.4012330E-01
 2.8000    5.4140530E-03    5.3339438E-01   -5.3339438E-01
 2.8100    5.3083037E-03    5.2671812E-01   -5.2671812E-01
 2.8200    5.2044803E-03    5.2009832E-01   -5.2009832E-01
 2.8300    5.1025907E-03    5.1353905E-01   -5.1353905E-01
 2.8400    5.0026297E-03    5.0704313E-01   -5.0704313E-01
 2.8500    4.9045670E-03    5.0061085E-01   -5.0061085E-01
 2.8600    4.8083423E-03    4.9423933E-01   -4.9423933E-01
 2.8700    4.7138721E-03    4.8792319E-01   -4.8792319E-01
 2.8800    4.6210705E-03    4.8165651E-01   -4.8165651E-01
 2.8900    4.5298770E-03    4.7543588E-01   -4.7543588E-01
 2.9000    4.4402781E-03    4.6926270E-01   -4.6926270E-01
 2.9100    4.3523031E-03    4.6314286E-01   -4.6314286E-01
 2.9200    4.2659897E-03    4.5708332E-01   -4.5708332E-01
 2.9300    4.1813412E-03    4.5108741E-01   -4.5108741E-01
 2.9400    4.0983045E-03    4.4515243E-01   -4.4515243E-01
 2.9500    4.0167885E-03    4.3927134E-01   -4.3927134E-01
 2.9600    3.9367114E-03    4.3343788E-01   -4.3343788E-01
 2.9700    3.8580417E-03    4.2765119E-01   -4.2765119E-01
 2.9800    3.7808034E-03    4.2191648E-01   -4.2191648E-01
 2.9900    3.7050406E-03    4.1624135E-01   -4.1624135E-01
 3.0000    3.6307729E-03    4.1063074E-01   -4.1063074E-01
 3.0100    3.5579746E-03    4.0508457E-01   -4.0508457E-01
 3.0200    3.4865918E-03    3.9959943E-01   -3.9959943E-01
 3.0300    3.4165743E-03    3.9417219E-01   -3.9417219E-01
 3.0400    3.3478946E-03    3.8880228E-01   -3.8880228E-01
 3.0500    3.2805426E-03    3.8349105E-01   -3.8349105E-01
 3.0600    3.2145048E-03    3.7823942E-01   -3.7823942E-01
 3.0700    3.1497507E-03    3.7304635E-01   -3.7304635E-01
 3.0800    3.0862397E-03    3.6790946E-01   -3.6790946E-01
 3.0900    3.0239380E-03    3.6282709E-01   -3.6282709E-01
 3.1000    2.9628308E-03    3.5779981E-01   -3.5779981E-01
 3.1100    2.9029180E-03    3.5282992E-01   -3.5282992E-01
 3.1200    2.8441957E-03    3.4791930E-01   -3.4791930E-01
 3.1300    2.7866410E-03    3.4306749E-01   -3.4306749E-01
 3.1400    2.7302102E-03    3.3827137E-01   -3.3827137E-01
 3.1500    2.6748514E-03    3.3352672E-01   -3.3352672E-01
 3.1600    2.6205223E-03    3.2883035E-01   -3.2883035E-01
 3.1700    2.5672023E-03    3.2418169E-01   -3.2418169E-01
 3.1800    2.5148935E-03    3.1958302E-01   -3.1958302E-01
 3.1900    2.4636117E-03    3.1503840E-01   -3.1503840E-01
 3.2000    2.4133718E-03    3.1055180E-01   -3.1055180E-01
 3.2100    2.3641724E-03    3.0612519E-01   -3.0612519E-01
 3.2200    2.3159896E-03    3.0175760E-01   -3.0175760E-01
 3.2300    2.2687820E-03    2.9744568E-01   -2.9744568E-01
 3.2400    2.2225047E-03    2.9318556E-01   -2.9318556E-01
 3.2500    2.1771250E-03    2.8897478E-01   -2.8897478E-01
 3.2600    2.1326301E-03    2.8481352E-01   -2.8481352E-01
 3.2700    2.0890236E-03    2.8070407E-01   -2.8070407E-01
 3.2800    2.0463077E-03    2.7664861E-01   -2.7664861E-01
 3.2900    2.0044628E-03    2.7264633E-01   -2.7264633E-01
 3.3000    1.9634387E-03    2.6869222E-01   -2.6869222E-01
 3.3100    1.9231712E-03    2.6477915E-01   -2.6477915E-01
 3.3200    1.8836138E-03    2.6090230E-01   -2.6090230E-01
 3.3300    1.8447630E-03    2.5706262E-01   -2.5706262E-01
 3.3400    1.8066543E-03    2.5326656E-01   -2.5326656E-01
 3.3500    1.7693321E-03    2.4952199E-01   -2.4952199E-01
 3.3600    1.7328166E-03    2.4583347E-01   -2.4583347E-01
