# total charge: 5.000000 
# r(A)     rho (e/A^3)     4*pi*r^2*rho(e/A)  dip  
 0.0000    2.4768395E+00    0.0000000E+00    3.9894228E+01
 0.0100    2.4745918E+00    3.1096638E-03    3.9692145E+01
 0.0200    2.4717523E+00    1.2424382E-02    3.9091845E+01
 0.0300    2.4682018E+00    2.7914704E-02    3.8110867E+01
 0.0400    2.4638137E+00    4.9537913E-02    3.6777476E+01
 0.0500    2.4584489E+00    7.7234449E-02    3.5129298E+01
 0.0600    2.4519532E+00    1.1092375E-01    3.3211537E+01
 0.0700    2.4441702E+00    1.5050031E-01    3.1074893E+01
 0.0800    2.4349720E+00    1.9583206E-01    2.8773323E+01
 0.0900    2.4242907E+00    2.4676274E-01    2.6361762E+01
 0.1000    2.4121278E+00    3.0311692E-01    2.3893956E+01
 0.1100    2.3985363E+00    3.6470484E-01    2.1420513E+01
 0.1200    2.3835908E+00    4.3132444E-01    1.8987281E+01
 0.1300    2.3673634E+00    5.0276089E-01    1.6634098E+01
 0.1400    2.3499126E+00    5.7878550E-01    1.4393961E+01
 0.1500    2.3312858E+00    6.5915554E-01    1.2292604E+01
 0.1600    2.3115268E+00    7.4361607E-01    1.0348467E+01
 0.1700    2.2906821E+00    8.3190269E-01    8.5730050E+00
 0.1800    2.2688023E+00    9.2374379E-01    6.9712720E+00
 0.1900    2.2459375E+00    1.0188605E+00    5.5427209E+00
 0.2000    2.2221310E+00    1.1169649E+00    4.2821318E+00
 0.2100    2.1974172E+00    1.2177580E+00    3.1806016E+00
 0.2200    2.1718257E+00    1.3209312E+00    2.2265281E+00
 0.2300    2.1453884E+00    1.4261706E+00    1.4065332E+00
 0.2400    2.1181446E+00    1.5331617E+00    7.0629134E-01
 0.2500    2.0901404E+00    1.6415924E+00    1.1123762E-01
 0.2600    2.0614231E+00    1.7511514E+00   -3.9285448E-01
 0.2700    2.0320357E+00    1.8615243E+00   -8.1943085E-01
 0.2800    2.0020148E+00    1.9723919E+00   -1.1808467E+00
 0.2900    1.9713943E+00    2.0834321E+00   -1.4881788E+00
 0.3000    1.9402111E+00    2.1943270E+00   -1.7511422E+00
 0.3100    1.9085104E+00    2.3047710E+00   -1.9780891E+00
 0.3200    1.8763460E+00    2.4144752E+00   -2.1760664E+00
 0.3300    1.8437753E+00    2.5231655E+00   -2.3509086E+00
 0.3400    1.8108522E+00    2.6305750E+00   -2.5073531E+00
 0.3500    1.7776222E+00    2.7364368E+00   -2.6491685E+00
 0.3600    1.7441221E+00    2.8404801E+00   -2.7792899E+00
 0.3700    1.7103840E+00    2.9424353E+00   -2.8999573E+00
 0.3800    1.6764414E+00    3.0420435E+00   -3.0128488E+00
 0.3900    1.6423341E+00    3.1390670E+00   -3.1192015E+00
 0.4000    1.6081090E+00    3.2332949E+00   -3.2199119E+00
 0.4100    1.5738160E+00    3.3245398E+00   -3.3156137E+00
 0.4200    1.5395025E+00    3.4126272E+00   -3.4067329E+00
 0.4300    1.5052074E+00    3.4973825E+00   -3.4935290E+00
 0.4400    1.4709599E+00    3.5786237E+00   -3.5761295E+00
 0.4500    1.4367809E+00    3.6561619E+00   -3.6545636E+00
 0.4600    1.4026868E+00    3.7298060E+00   -3.7287919E+00
 0.4700    1.3686942E+00    3.7993736E+00   -3.7987367E+00
 0.4800    1.3348265E+00    3.8647121E+00   -3.8643160E+00
 0.4900    1.3011191E+00    3.9257178E+00   -3.9254739E+00
 0.5000    1.2676167E+00    3.9823353E+00   -3.9821867E+00
 0.5100    1.2343620E+00    4.0345281E+00   -4.0344384E+00
 0.5200    1.2013856E+00    4.0822440E+00   -4.0821904E+00
 0.5300    1.1687063E+00    4.1254087E+00   -4.1253770E+00
 0.5400    1.1363382E+00    4.1639449E+00   -4.1639263E+00
 0.5500    1.1042952E+00    4.1977873E+00   -4.1977765E+00
 0.5600    1.0725892E+00    4.2268745E+00   -4.2268683E+00
 0.5700    1.0412277E+00    4.2511390E+00   -4.2511355E+00
 0.5800    1.0102199E+00    4.2705301E+00   -4.2705281E+00
 0.5900    9.7958858E-01    4.2850669E+00   -4.2850658E+00
 0.6000    9.4937737E-01    4.2948821E+00   -4.2948814E+00
 0.6100    9.1964530E-01    4.3002122E+00   -4.3002119E+00
 0.6200    8.9044990E-01    4.3013297E+00   -4.3013295E+00
 0.6300    8.6182953E-01    4.2984545E+00   -4.2984544E+00
 0.6400    8.3379467E-01    4.2916957E+00   -4.2916957E+00
 0.6500    8.0633006E-01    4.2810414E+00   -4.2810414E+00
 0.6600    7.7940375E-01    4.2663868E+00   -4.2663868E+00
 0.6700    7.5298021E-01    4.2475943E+00   -4.2475943E+00
 0.6800    7.2703772E-01    4.2245906E+00   -4.2245906E+00
 0.6900    7.0158495E-01    4.1974769E+00   -4.1974769E+00
 0.7000    6.7666480E-01    4.1665782E+00   -4.1665782E+00
 0.7100    6.5233815E-01    4.1323713E+00   -4.1323713E+00
 0.7200    6.2865709E-01    4.0953278E+00   -4.0953278E+00
 0.7300    6.0564625E-01    4.0557821E+00   -4.0557821E+00
 0.7400    5.8330147E-01    4.0138984E+00   -4.0138984E+00
 0.7500    5.6160037E-01    3.9697191E+00   -3.9697191E+00
 0.7600    5.4051504E-01    3.9232396E+00   -3.9232396E+00
 0.7700    5.2002185E-01    3.8744754E+00   -3.8744754E+00
 0.7800    5.0010657E-01    3.8235047E+00   -3.8235047E+00
 0.7900    4.8076437E-01    3.7704772E+00   -3.7704772E+00
 0.8000    4.6199675E-01    3.7155984E+00   -3.7155984E+00
 0.8100    4.4380993E-01    3.6591222E+00   -3.6591222E+00
 0.8200    4.2621527E-01    3.6013603E+00   -3.6013603E+00
 0.8300    4.0922708E-01    3.5426677E+00   -3.5426677E+00
 0.8400    3.9285418E-01    3.4833716E+00   -3.4833716E+00
 0.8500    3.7709010E-01    3.4236775E+00   -3.4236775E+00
 0.8600    3.6191169E-01    3.3636390E+00   -3.3636390E+00
 0.8700    3.4728978E-01    3.3032418E+00   -3.3032418E+00
 0.8800    3.3320425E-01    3.2425430E+00   -3.2425430E+00
 0.8900    3.1965182E-01    3.1817574E+00   -3.1817574E+00
 0.9000    3.0664162E-01    3.1212315E+00   -3.1212315E+00
 0.9100    2.9418428E-01    3.0613438E+00   -3.0613438E+00
 0.9200    2.8228326E-01    3.0024144E+00   -3.0024144E+00
 0.9300    2.7093220E-01    2.9446683E+00   -2.9446683E+00
 0.9400    2.6011632E-01    2.8882393E+00   -2.8882393E+00
 0.9500    2.4981499E-01    2.8331891E+00   -2.8331891E+00
 0.9600    2.4000562E-01    2.7795452E+00   -2.7795452E+00
 0.9700    2.3066974E-01    2.7273693E+00   -2.7273693E+00
 0.9800    2.2179851E-01    2.6768291E+00   -2.6768291E+00
 0.9900    2.1339294E-01    2.6282115E+00   -2.6282115E+00
 1.0000    2.0545694E-01    2.5818481E+00   -2.5818481E+00
 1.0100    1.9798696E-01    2.5379859E+00   -2.5379859E+00
 1.0200    1.9096366E-01    2.4966688E+00   -2.4966688E+00
 1.0300    1.8435003E-01    2.4576924E+00   -2.4576924E+00
 1.0400    1.7809829E-01    2.4206739E+00   -2.4206739E+00
 1.0500    1.7216389E-01    2.3852315E+00   -2.3852315E+00
 1.0600    1.6651981E-01    2.3511887E+00   -2.3511887E+00
 1.0700    1.6116108E-01    2.3186628E+00   -2.3186628E+00
 1.0800    1.5609633E-01    2.2879687E+00   -2.2879687E+00
 1.0900    1.5133309E-01    2.2594189E+00   -2.2594189E+00
 1.1000    1.4686812E-01    2.2331751E+00   -2.2331751E+00
 1.1100    1.4268726E-01    2.2092304E+00   -2.2092304E+00
 1.1200    1.3877018E-01    2.1874698E+00   -2.1874698E+00
 1.1300    1.3509404E-01    2.1677188E+00   -2.1677188E+00
 1.1400    1.3163415E-01    2.1497509E+00   -2.1497509E+00
 1.1500    1.2836411E-01    2.1332863E+00   -2.1332863E+00
 1.1600    1.2525724E-01    2.1180133E+00   -2.1180133E+00
 1.1700    1.2228871E-01    2.1036231E+00   -2.1036231E+00
 1.1800    1.1943652E-01    2.0898303E+00   -2.0898303E+00
 1.1900    1.1668141E-01    2.0763733E+00   -2.0763733E+00
 1.2000    1.1400663E-01    2.0630154E+00   -2.0630154E+00
 1.2100    1.1139866E-01    2.0495597E+00   -2.0495597E+00
 1.2200    1.0884814E-01    2.0358723E+00   -2.0358723E+00
 1.2300    1.0635034E-01    2.0218966E+00   -2.0218966E+00
 1.2400    1.0390434E-01    2.0076451E+00   -2.0076451E+00
 1.2500    1.0151154E-01    1.9931745E+00   -1.9931745E+00
 1.2600    9.9173852E-02    1.9785550E+00   -1.9785550E+00
 1.2700    9.6892361E-02    1.9638434E+00   -1.9638434E+00
 1.2800    9.4666708E-02    1.9490684E+00   -1.9490684E+00
 1.2900    9.2495262E-02    1.9342329E+00   -1.9342329E+00
 1.3000    9.0375976E-02    1.9193296E+00   -1.9193296E+00
 1.3100    8.8307416E-02    1.9043626E+00   -1.9043626E+00
 1.3200    8.6289272E-02    1.8893592E+00   -1.8893592E+00
 1.3300    8.4321992E-02    1.8743643E+00   -1.8743643E+00
 1.3400    8.2405859E-02    1.8594202E+00   -1.8594202E+00
 1.3500    8.0540245E-02    1.8445496E+00   -1.8445496E+00
 1.3600    7.8723670E-02    1.8297553E+00   -1.8297553E+00
 1.3700    7.6954643E-02    1.8150384E+00   -1.8150384E+00
 1.3800    7.5232682E-02    1.8004231E+00   -1.8004231E+00
 1.3900    7.3558695E-02    1.7859672E+00   -1.7859672E+00
 1.4000    7.1934045E-02    1.7717418E+00   -1.7717418E+00
 1.4100    7.0358490E-02    1.7577803E+00   -1.7577803E+00
 1.4200    6.8828319E-02    1.7440291E+00   -1.7440291E+00
 1.4300    6.7336526E-02    1.7303448E+00   -1.7303448E+00
 1.4400    6.5875523E-02    1.7165598E+00   -1.7165598E+00
 1.4500    6.4440683E-02    1.7025740E+00   -1.7025740E+00
 1.4600    6.3032019E-02    1.6884056E+00   -1.6884056E+00
 1.4700    6.1652875E-02    1.6741635E+00   -1.6741635E+00
 1.4800    6.0307016E-02    1.6599734E+00   -1.6599734E+00
 1.4900    5.8996522E-02    1.6459203E+00   -1.6459203E+00
 1.5000    5.7721634E-02    1.6320408E+00   -1.6320408E+00
 1.5100    5.6481789E-02    1.6183491E+00   -1.6183491E+00
 1.5200    5.5276324E-02    1.6048565E+00   -1.6048565E+00
 1.5300    5.4104010E-02    1.5915569E+00   -1.5915569E+00
 1.5400    5.2962006E-02    1.5783951E+00   -1.5783951E+00
 1.5500    5.1845647E-02    1.5652566E+00   -1.5652566E+00
 1.5600    5.0749883E-02    1.5520085E+00   -1.5520085E+00
 1.5700    4.9671545E-02    1.5385685E+00   -1.5385685E+00
 1.5800    4.8610613E-02    1.5249484E+00   -1.5249484E+00
 1.5900    4.7569599E-02    1.5112406E+00   -1.5112406E+00
 1.6000    4.6551822E-02    1.4975679E+00   -1.4975679E+00
 1.6100    4.5559989E-02    1.4840387E+00   -1.4840387E+00
 1.6200    4.4595576E-02    1.4707257E+00   -1.4707257E+00
 1.6300    4.3658686E-02    1.4576583E+00   -1.4576583E+00
 1.6400    4.2748100E-02    1.4448221E+00   -1.4448221E+00
 1.6500    4.1861627E-02    1.4321676E+00   -1.4321676E+00
 1.6600    4.0996682E-02    1.4196286E+00   -1.4196286E+00
 1.6700    4.0150749E-02    1.4071373E+00   -1.4071373E+00
 1.6800    3.9321551E-02    1.3946302E+00   -1.3946302E+00
 1.6900    3.8507183E-02    1.3820540E+00   -1.3820540E+00
 1.7000    3.7706524E-02    1.3693807E+00   -1.3693807E+00
 1.7100    3.6919705E-02    1.3566265E+00   -1.3566265E+00
 1.7200    3.6147998E-02    1.3438507E+00   -1.3438507E+00
 1.7300    3.5392909E-02    1.3311234E+00   -1.3311234E+00
 1.7400    3.4655049E-02    1.3184840E+00   -1.3184840E+00
 1.7500    3.3933667E-02    1.3059206E+00   -1.3059206E+00
 1.7600    3.3227103E-02    1.2933846E+00   -1.2933846E+00
 1.7700    3.2533630E-02    1.2808224E+00   -1.2808224E+00
 1.7800    3.1852020E-02    1.2681974E+00   -1.2681974E+00
 1.7900    3.1181588E-02    1.2554926E+00   -1.2554926E+00
 1.8000    3.0521967E-02    1.2427031E+00   -1.2427031E+00
 1.8100    2.9872925E-02    1.2298291E+00   -1.2298291E+00
 1.8200    2.9234326E-02    1.2168743E+00   -1.2168743E+00
 1.8300    2.8606189E-02    1.2038491E+00   -1.2038491E+00
 1.8400    2.7988722E-02    1.1907719E+00   -1.1907719E+00
 1.8500    2.7382219E-02    1.1776655E+00   -1.1776655E+00
 1.8600    2.6786835E-02    1.1645474E+00   -1.1645474E+00
 1.8700    2.6202415E-02    1.1514217E+00   -1.1514217E+00
 1.8800    2.5628526E-02    1.1382802E+00   -1.1382802E+00
 1.8900    2.5064697E-02    1.1251124E+00   -1.1251124E+00
 1.9000    2.4510611E-02    1.1119140E+00   -1.1119140E+00
 1.9100    2.3966093E-02    1.0986866E+00   -1.0986866E+00
 1.9200    2.3430937E-02    1.0854304E+00   -1.0854304E+00
 1.9300    2.2904862E-02    1.0721416E+00   -1.0721416E+00
 1.9400    2.2387743E-02    1.0588237E+00   -1.0588237E+00
 1.9500    2.1879965E-02    1.0455040E+00   -1.0455040E+00
 1.9600    2.1382500E-02    1.0322395E+00   -1.0322395E+00
 1.9700    2.0896497E-02    1.0190977E+00   -1.0190977E+00
 1.9800    2.0422566E-02    1.0061218E+00   -1.0061218E+00
 1.9900    1.9960242E-02    9.9330318E-01   -9.9330318E-01
 2.0000    1.9508061E-02    9.8058212E-01   -9.8058212E-01
 2.0100    1.9064202E-02    9.6787800E-01   -9.6787800E-01
 2.0200    1.8627304E-02    9.5513028E-01   -9.5513028E-01
 2.0300    1.8196987E-02    9.4232654E-01   -9.4232654E-01
 2.0400    1.7773860E-02    9.2950549E-01   -9.2950549E-01
 2.0500    1.7359105E-02    9.1673734E-01   -9.1673734E-01
 2.0600    1.6953839E-02    9.0409142E-01   -9.0409142E-01
 2.0700    1.6558524E-02    8.9160432E-01   -8.9160432E-01
 2.0800    1.6172689E-02    8.7926295E-01   -8.7926295E-01
 2.0900    1.5795143E-02    8.6701379E-01   -8.6701379E-01
 2.1000    1.5424616E-02    8.5479665E-01   -8.5479665E-01
 2.1100    1.5060466E-02    8.4258397E-01   -8.4258397E-01
 2.1200    1.4703001E-02    8.3040043E-01   -8.3040043E-01
 2.1300    1.4353203E-02    8.1831010E-01   -8.1831010E-01
 2.1400    1.4012088E-02    8.0638098E-01   -8.0638098E-01
 2.1500    1.3680121E-02    7.9465150E-01   -7.9465150E-01
 2.1600    1.3357019E-02    7.8311749E-01   -7.8311749E-01
 2.1700    1.3041953E-02    7.7174166E-01   -7.7174166E-01
 2.1800    1.2733912E-02    7.6047456E-01   -7.6047456E-01
 2.1900    1.2432060E-02    7.4927494E-01   -7.4927494E-01
 2.2000    1.2135929E-02    7.3812218E-01   -7.3812218E-01
 2.2100    1.1845438E-02    7.2701860E-01   -7.2701860E-01
 2.2200    1.1560784E-02    7.1598364E-01   -7.1598364E-01
 2.2300    1.1282286E-02    7.0504478E-01   -7.0504478E-01
 2.2400    1.1010251E-02    6.9422958E-01   -6.9422958E-01
 2.2500    1.0744900E-02    6.8356097E-01   -6.8356097E-01
 2.2600    1.0486343E-02    6.7305539E-01   -6.7305539E-01
 2.2700    1.0234573E-02    6.6272186E-01   -6.6272186E-01
 2.2800    9.9894391E-03    6.5256032E-01   -6.5256032E-01
 2.2900    9.7506176E-03    6.4255891E-01   -6.4255891E-01
 2.3000    9.5175959E-03    6.3269266E-01   -6.3269266E-01
 2.3100    9.2897295E-03    6.2292663E-01   -6.2292663E-01
 2.3200    9.0663630E-03    6.1322371E-01   -6.1322371E-01
 2.3300    8.8469795E-03    6.0355483E-01   -6.0355483E-01
 2.3400    8.6313270E-03    5.9390797E-01   -5.9390797E-01
 2.3500    8.4194800E-03    5.8429324E-01   -5.8429324E-01
 2.3600    8.2117990E-03    5.7474100E-01   -5.7474100E-01
 2.3700    8.0087741E-03    5.6529169E-01   -5.6529169E-01
 2.3800    7.8107912E-03    5.5597954E-01   -5.5597954E-01
 2.3900    7.6179283E-03    5.4681768E-01   -5.4681768E-01
 2.4000    7.4299066E-03    5.3779369E-01   -5.3779369E-01
 2.4100    7.2462407E-03    5.2887947E-01   -5.2887947E-01
 2.4200    7.0664970E-03    5.2004961E-01   -5.2004961E-01
 2.4300    6.8904895E-03    5.1129611E-01   -5.1129611E-01
 2.4400    6.7182954E-03    5.0263024E-01   -5.0263024E-01
 2.4500    6.5501077E-03    4.9407227E-01   -4.9407227E-01
 2.4600    6.3860512E-03    4.8563779E-01   -4.8563779E-01
 2.4700    6.2260937E-03    4.7733076E-01   -4.7733076E-01
 2.4800    6.0700889E-03    4.6914628E-01   -4.6914628E-01
 2.4900    5.9178803E-03    4.6107836E-01   -4.6107836E-01
 2.5000    5.7693715E-03    4.5312538E-01   -4.5312538E-01
 2.5100    5.6245217E-03    4.4528996E-01   -4.4528996E-01
 2.5200    5.4833012E-03    4.3757555E-01   -4.3757555E-01
 2.5300    5.3456576E-03    4.2998375E-01   -4.2998375E-01
 2.5400    5.2115104E-03    4.2251380E-01   -4.2251380E-01
 2.5500    5.0807615E-03    4.1516338E-01   -4.1516338E-01
 2.5600    4.9533048E-03    4.0792925E-01   -4.0792925E-01
 2.5700    4.8290302E-03    4.0080768E-01   -4.0080768E-01
 2.5800    4.7078321E-03    3.9379504E-01   -3.9379504E-01
 2.5900    4.5896283E-03    3.8688947E-01   -3.8688947E-01
 2.6000    4.4743784E-03    3.8009247E-01   -3.8009247E-01
 2.6100    4.3620757E-03    3.7340840E-01   -3.7340840E-01
 2.6200    4.2527003E-03    3.6684046E-01   -3.6684046E-01
 2.6300    4.1461527E-03    3.6038496E-01   -3.6038496E-01
 2.6400    4.0422282E-03    3.5402876E-01   -3.5402876E-01
 2.6500    3.9406758E-03    3.4775414E-01   -3.4775414E-01
 2.6600    3.8413160E-03    3.4154912E-01   -3.4154912E-01
 2.6700    3.7441305E-03    3.3541568E-01   -3.3541568E-01
 2.6800    3.6492462E-03    3.2936892E-01   -3.2936892E-01
 2.6900    3.5568254E-03    3.2342752E-01   -3.2342752E-01
 2.7000    3.4669431E-03    3.1760264E-01   -3.1760264E-01
 2.7100    3.3795334E-03    3.1189268E-01   -3.1189268E-01
 2.7200    3.2944245E-03    3.0628606E-01   -3.0628606E-01
 2.7300    3.2114315E-03    3.0076952E-01   -3.0076952E-01
 2.7400    3.1304426E-03    2.9533624E-01   -2.9533624E-01
 2.7500    3.0514424E-03    2.8998827E-01   -2.8998827E-01
 2.7600    2.9744632E-03    2.8473223E-01   -2.8473223E-01
 2.7700    2.8995115E-03    2.7957237E-01   -2.7957237E-01
 2.7800    2.8265372E-03    2.7450747E-01   -2.7450747E-01
 2.7900    2.7554650E-03    2.6953376E-01   -2.6953376E-01
 2.8000    2.6862481E-03    2.6465009E-01   -2.6465009E-01
 2.8100    2.6188857E-03    2.5985977E-01   -2.5985977E-01
 2.8200    2.5533870E-03    2.5516713E-01   -2.5516713E-01
 2.8300    2.4897112E-03    2.5057152E-01   -2.5057152E-01
 2.8400    2.4277364E-03    2.4606399E-01   -2.4606399E-01
 2.8500    2.3672839E-03    2.4162949E-01   -2.4162949E-01
 2.8600    2.3081785E-03    2.3725279E-01   -2.3725279E-01
 2.8700    2.2503000E-03    2.3292391E-01   -2.3292391E-01
 2.8800    2.1936008E-03    2.2864011E-01   -2.2864011E-01
 2.8900    2.1380961E-03    2.2440513E-01   -2.2440513E-01
 2.9000    2.0838426E-03    2.2022710E-01   -2.2022710E-01
 2.9100    2.0309055E-03    2.1611532E-01   -2.1611532E-01
 2.9200    1.9793167E-03    2.1207567E-01   -2.1207567E-01
 2.9300    1.9290410E-03    2.0810694E-01   -2.0810694E-01
 2.9400    1.8799776E-03    2.0420069E-01   -2.0420069E-01
 2.9500    1.8320016E-03    2.0034557E-01   -2.0034557E-01
 2.9600    1.7850235E-03    1.9653379E-01   -1.9653379E-01
 2.9700    1.7390332E-03    1.9276609E-01   -1.9276609E-01
 2.9800    1.6941054E-03    1.8905268E-01   -1.8905268E-01
 2.9900    1.6503599E-03    1.8540904E-01   -1.8540904E-01
 3.0000    1.6078970E-03    1.8184887E-01   -1.8184887E-01
 3.0100    1.5667454E-03    1.7837800E-01   -1.7837800E-01
 3.0200    1.5268496E-03    1.7499273E-01   -1.7499273E-01
 3.0300    1.4881015E-03    1.7168315E-01   -1.7168315E-01
 3.0400    1.4503920E-03    1.6843891E-01   -1.6843891E-01
 3.0500    1.4136509E-03    1.6525390E-01   -1.6525390E-01
 3.0600    1.3778548E-03    1.6212731E-01   -1.6212731E-01
 3.0700    1.3430076E-03    1.5906150E-01   -1.5906150E-01
 3.0800    1.3091143E-03    1.5605901E-01   -1.5605901E-01
 3.0900    1.2761667E-03    1.5312082E-01   -1.5312082E-01
 3.1000    1.2441384E-03    1.5024566E-01   -1.5024566E-01
 3.1100    1.2129832E-03    1.4742985E-01   -1.4742985E-01
 3.1200    1.1826356E-03    1.4466718E-01   -1.4466718E-01
 3.1300    1.1530187E-03    1.4194984E-01   -1.4194984E-01
 3.1400    1.1240608E-03    1.3927044E-01   -1.3927044E-01
 3.1500    1.0957167E-03    1.3662471E-01   -1.3662471E-01
 3.1600    1.0679836E-03    1.3401351E-01   -1.3401351E-01
 3.1700    1.0409015E-03    1.3144317E-01   -1.3144317E-01
 3.1800    1.0145375E-03    1.2892353E-01   -1.2892353E-01
 3.1900    9.8895557E-04    1.2646432E-01   -1.2646432E-01
 3.2000    9.6418456E-04    1.2407092E-01   -1.2407092E-01
 3.2100    9.4019743E-04    1.2174160E-01   -1.2174160E-01
 3.2200    9.1691299E-04    1.1946749E-01   -1.1946749E-01
 3.2300    8.9421998E-04    1.1723554E-01   -1.1723554E-01
 3.2400    8.7201366E-04    1.1503319E-01   -1.1503319E-01
 3.2500    8.5023071E-04    1.1285307E-01   -1.1285307E-01
 3.2600    8.2886867E-04    1.1069571E-01   -1.1069571E-01
 3.2700    8.0797745E-04    1.0856869E-01   -1.0856869E-01
 3.2800    7.8762065E-04    1.0648162E-01   -1.0648162E-01
 3.2900    7.6782619E-04    1.0443945E-01   -1.0443945E-01
 3.3000    7.4856098E-04    1.0243890E-01   -1.0243890E-01
 3.3100    7.2974986E-04    1.0047080E-01   -1.0047080E-01
 3.3200    7.1132311E-04    9.8526476E-02   -9.8526476E-02
 3.3300    6.9325653E-04    9.6603376E-02   -9.6603376E-02
 3.3400    6.7558007E-04    9.4706465E-02   -9.4706465E-02
 3.3500    6.5835604E-04    9.2845381E-02   -9.2845381E-02
 3.3600    6.4164242E-04    9.1029359E-02   -9.1029359E-02
