# total charge: 11.000000 
# r(A)     rho (e/A^3)     4*pi*r^2*rho(e/A)  dip  
 0.0000    5.9867776E+00    0.0000000E+00    8.7767302E+01
 0.0100    5.9818666E+00    7.5170353E-03    8.7322043E+01
 0.0200    5.9756603E+00    3.0036945E-02    8.5999356E+01
 0.0300    5.9678954E+00    6.7495307E-02    8.3837824E+01
 0.0400    5.9582900E+00    1.1979853E-01    8.0899632E+01
 0.0500    5.9465324E+00    1.8681583E-01    7.7267556E+01
 0.0600    5.9322760E+00    2.6836984E-01    7.3041043E+01
 0.0700    5.9151696E+00    3.6422785E-01    6.8331637E+01
 0.0800    5.8949277E+00    4.7409822E-01    6.3258043E+01
 0.0900    5.8714005E+00    5.9763577E-01    5.7941119E+01
 0.1000    5.8445925E+00    7.3445315E-01    5.2499106E+01
 0.1100    5.8146211E+00    8.8413107E-01    4.7043348E+01
 0.1200    5.7816466E+00    1.0462221E+00    4.1674710E+01
 0.1300    5.7458166E+00    1.2202486E+00    3.6480842E+01
 0.1400    5.7072451E+00    1.4056994E+00    3.1534343E+01
 0.1500    5.6660211E+00    1.6020297E+00    2.6891841E+01
 0.1600    5.6222282E+00    1.8086657E+00    2.2593918E+01
 0.1700    5.5759593E+00    2.0250106E+00    1.8665786E+01
 0.1800    5.5273169E+00    2.2504493E+00    1.5118585E+01
 0.1900    5.4764020E+00    2.4843478E+00    1.1951131E+01
 0.2000    5.4232996E+00    2.7260477E+00    9.1519649E+00
 0.2100    5.3680759E+00    2.9748639E+00    6.7015272E+00
 0.2200    5.3107927E+00    3.2300896E+00    4.5743208E+00
 0.2300    5.2515329E+00    3.4910143E+00    2.7409340E+00
 0.2400    5.1904126E+00    3.7569397E+00    1.1698569E+00
 0.2500    5.1275614E+00    4.0271773E+00   -1.7095121E-01
 0.2600    5.0630774E+00    4.3010167E+00   -1.3127634E+00
 0.2700    4.9969909E+00    4.5776855E+00   -2.2850798E+00
 0.2800    4.9292747E+00    4.8563385E+00   -3.1149391E+00
 0.2900    4.8599033E+00    5.1361002E+00   -3.8265431E+00
 0.3000    4.7889247E+00    5.4161462E+00   -4.4411396E+00
 0.3100    4.7164960E+00    5.6957737E+00   -4.9770735E+00
 0.3200    4.6428561E+00    5.9744103E+00   -5.4499109E+00
 0.3300    4.5682482E+00    6.2515461E+00   -5.8725809E+00
 0.3400    4.4928403E+00    6.5266253E+00   -6.2555371E+00
 0.3500    4.4166924E+00    6.7989697E+00   -6.6069795E+00
 0.3600    4.3397893E+00    7.0677879E+00   -6.9331695E+00
 0.3700    4.2621147E+00    7.3322699E+00   -7.2388182E+00
 0.3800    4.1837188E+00    7.5917088E+00   -7.5274805E+00
 0.3900    4.1047441E+00    7.8455821E+00   -7.8018779E+00
 0.4000    4.0253943E+00    8.0935355E+00   -8.0640929E+00
 0.4100    3.9458468E+00    8.3352340E+00   -8.3155964E+00
 0.4200    3.8661449E+00    8.5701136E+00   -8.5571461E+00
 0.4300    3.7861515E+00    8.7972060E+00   -8.7887283E+00
 0.4400    3.7056411E+00    9.0152667E+00   -9.0097793E+00
 0.4500    3.6245143E+00    9.2232655E+00   -9.2197491E+00
 0.4600    3.5429819E+00    9.4209449E+00   -9.4187139E+00
 0.4700    3.4615441E+00    9.6089393E+00   -9.6075380E+00
 0.4800    3.3807334E+00    9.7882097E+00   -9.7873382E+00
 0.4900    3.3008075E+00    9.9591487E+00   -9.9586121E+00
 0.5000    3.2216562E+00    1.0121131E+01   -1.0120804E+01
 0.5100    3.1430241E+00    1.0273015E+01   -1.0272818E+01
 0.5200    3.0648659E+00    1.0414251E+01   -1.0414133E+01
 0.5300    2.9875113E+00    1.0545597E+01   -1.0545527E+01
 0.5400    2.9114552E+00    1.0668601E+01   -1.0668561E+01
 0.5500    2.8369113E+00    1.0784028E+01   -1.0784004E+01
 0.5600    2.7634944E+00    1.0890417E+01   -1.0890403E+01
 0.5700    2.6903242E+00    1.0984093E+01   -1.0984085E+01
 0.5800    2.6165278E+00    1.1060919E+01   -1.1060914E+01
 0.5900    2.5417985E+00    1.1118725E+01   -1.1118723E+01
 0.6000    2.4666149E+00    1.1158703E+01   -1.1158702E+01
 0.6100    2.3919723E+00    1.1184735E+01   -1.1184734E+01
 0.6200    2.3188252E+00    1.1201115E+01   -1.1201114E+01
 0.6300    2.2476227E+00    1.1210226E+01   -1.1210226E+01
 0.6400    2.1782259E+00    1.1211733E+01   -1.1211733E+01
 0.6500    2.1102015E+00    1.1203675E+01   -1.1203675E+01
 0.6600    2.0432285E+00    1.1184451E+01   -1.1184451E+01
 0.6700    1.9773211E+00    1.1154155E+01   -1.1154155E+01
 0.6800    1.9127704E+00    1.1114515E+01   -1.1114515E+01
 0.6900    1.8499204E+00    1.1067795E+01   -1.1067795E+01
 0.7000    1.7889541E+00    1.1015524E+01   -1.1015524E+01
 0.7100    1.7297928E+00    1.0957731E+01   -1.0957731E+01
 0.7200    1.6721507E+00    1.0893069E+01   -1.0893069E+01
 0.7300    1.6157110E+00    1.0819801E+01   -1.0819801E+01
 0.7400    1.5602904E+00    1.0736896E+01   -1.0736896E+01
 0.7500    1.5058387E+00    1.0644146E+01   -1.0644146E+01
 0.7600    1.4522712E+00    1.0541072E+01   -1.0541072E+01
 0.7700    1.3993303E+00    1.0425852E+01   -1.0425852E+01
 0.7800    1.3466753E+00    1.0295844E+01   -1.0295844E+01
 0.7900    1.2941872E+00    1.0149885E+01   -1.0149885E+01
 0.8000    1.2422505E+00    9.9907711E+00   -9.9907711E+00
 0.8100    1.1917517E+00    9.8257492E+00   -9.8257492E+00
 0.8200    1.1437347E+00    9.6641325E+00   -9.6641325E+00
 0.8300    1.0988934E+00    9.5130901E+00   -9.5130901E+00
 0.8400    1.0571838E+00    9.3738706E+00   -9.3738706E+00
 0.8500    1.0177727E+00    9.2405644E+00   -9.2405644E+00
 0.8600    9.7937143E-01    9.1023640E+00   -9.1023640E+00
 0.8700    9.4081022E-01    8.9485032E+00   -8.9485032E+00
 0.8800    9.0154104E-01    8.7732541E+00   -8.7732541E+00
 0.8900    8.6177352E-01    8.5779404E+00   -8.5779404E+00
 0.9000    8.2219379E-01    8.3689134E+00   -8.3689134E+00
 0.9100    7.8352307E-01    8.1535068E+00   -8.1535068E+00
 0.9200    7.4625270E-01    7.9372751E+00   -7.9372751E+00
 0.9300    7.1067426E-01    7.7240726E+00   -7.7240726E+00
 0.9400    6.7703807E-01    7.5175905E+00   -7.5175905E+00
 0.9500    6.4560483E-01    7.3219009E+00   -7.3219009E+00
 0.9600    6.1654164E-01    7.1402718E+00   -7.1402718E+00
 0.9700    5.8980562E-01    6.9736836E+00   -6.9736836E+00
 0.9800    5.6512845E-01    6.8203896E+00   -6.8203896E+00
 0.9900    5.4205817E-01    6.6761509E+00   -6.6761509E+00
 1.0000    5.1999331E-01    6.5344286E+00   -6.5344286E+00
 1.0100    4.9826963E-01    6.3872958E+00   -6.3872958E+00
 1.0200    4.7638080E-01    6.2282273E+00   -6.2282273E+00
 1.0300    4.5424048E-01    6.0557808E+00   -6.0557808E+00
 1.0400    4.3226054E-01    5.8751929E+00   -5.8751929E+00
 1.0500    4.1113538E-01    5.6960437E+00   -5.6960437E+00
 1.0600    3.9147007E-01    5.5273907E+00   -5.5273907E+00
 1.0700    3.7350738E-01    5.3737395E+00   -5.3737395E+00
 1.0800    3.5710729E-01    5.2342696E+00   -5.2342696E+00
 1.0900    3.4193508E-01    5.1051267E+00   -5.1051267E+00
 1.1000    3.2768575E-01    4.9825629E+00   -4.9825629E+00
 1.1100    3.1418751E-01    4.8645731E+00   -4.8645731E+00
 1.1200    3.0135421E-01    4.7503234E+00   -4.7503234E+00
 1.1300    2.8908748E-01    4.6386974E+00   -4.6386974E+00
 1.1400    2.7725109E-01    4.5278583E+00   -4.5278583E+00
 1.1500    2.6573698E-01    4.4162895E+00   -4.4162895E+00
 1.1600    2.5453165E-01    4.3039542E+00   -4.3039542E+00
 1.1700    2.4369829E-01    4.1921234E+00   -4.1921234E+00
 1.1800    2.3329516E-01    4.0820620E+00   -4.0820620E+00
 1.1900    2.2331971E-01    3.9740273E+00   -3.9740273E+00
 1.2000    2.1372577E-01    3.8674904E+00   -3.8674904E+00
 1.2100    2.0447771E-01    3.7620675E+00   -3.7620675E+00
 1.2200    1.9558153E-01    3.6581151E+00   -3.6581151E+00
 1.2300    1.8707518E-01    3.5566101E+00   -3.5566101E+00
 1.2400    1.7900385E-01    3.4587215E+00   -3.4587215E+00
 1.2500    1.7140477E-01    3.3655248E+00   -3.3655248E+00
 1.2600    1.6430133E-01    3.2778723E+00   -3.2778723E+00
 1.2700    1.5769361E-01    3.1961812E+00   -3.1961812E+00
 1.2800    1.5154287E-01    3.1200769E+00   -3.1200769E+00
 1.2900    1.4576403E-01    3.0481733E+00   -3.0481733E+00
 1.3000    1.4024634E-01    2.9784347E+00   -2.9784347E+00
 1.3100    1.3490857E-01    2.9093234E+00   -2.9093234E+00
 1.3200    1.2976154E-01    2.8412124E+00   -2.8412124E+00
 1.3300    1.2492295E-01    2.7768690E+00   -2.7768690E+00
 1.3400    1.2055057E-01    2.7201241E+00   -2.7201241E+00
 1.3500    1.1672850E-01    2.6733406E+00   -2.6733406E+00
 1.3600    1.1339434E-01    2.6355974E+00   -2.6355974E+00
 1.3700    1.1036705E-01    2.6030975E+00   -2.6030975E+00
 1.3800    1.0745349E-01    2.5715121E+00   -2.5715121E+00
 1.3900    1.0455386E-01    2.5385138E+00   -2.5385138E+00
 1.4000    1.0169455E-01    2.5047456E+00   -2.5047456E+00
 1.4100    9.8972447E-02    2.4726486E+00   -2.4726486E+00
 1.4200    9.6455975E-02    2.4440815E+00   -2.4440815E+00
 1.4300    9.4118435E-02    2.4185587E+00   -2.4185587E+00
 1.4400    9.1851891E-02    2.3934422E+00   -2.3934422E+00
 1.4500    8.9543200E-02    2.3658025E+00   -2.3658025E+00
 1.4600    8.7145536E-02    2.3343218E+00   -2.3343218E+00
 1.4700    8.4691409E-02    2.2997673E+00   -2.2997673E+00
 1.4800    8.2247671E-02    2.2638982E+00   -2.2638982E+00
 1.4900    7.9857025E-02    2.2278991E+00   -2.2278991E+00
 1.5000    7.7512990E-02    2.1916282E+00   -2.1916282E+00
 1.5100    7.5183444E-02    2.1541998E+00   -2.1541998E+00
 1.5200    7.2859299E-02    2.1153490E+00   -2.1153490E+00
 1.5300    7.0586652E-02    2.0764205E+00   -2.0764205E+00
 1.5400    6.8454963E-02    2.0401225E+00   -2.0401225E+00
 1.5500    6.6548742E-02    2.0091535E+00   -2.0091535E+00
 1.5600    6.4898346E-02    1.9846900E+00   -1.9846900E+00
 1.5700    6.3465795E-02    1.9658433E+00   -1.9658433E+00
 1.5800    6.2174641E-02    1.9504612E+00   -1.9504612E+00
 1.5900    6.0959533E-02    1.9366259E+00   -1.9366259E+00
 1.6000    5.9797943E-02    1.9236944E+00   -1.9236944E+00
 1.6100    5.8705021E-02    1.9122156E+00   -1.9122156E+00
 1.6200    5.7704283E-02    1.9030401E+00   -1.9030401E+00
 1.6300    5.6800871E-02    1.8964442E+00   -1.8964442E+00
 1.6400    5.5972845E-02    1.8917988E+00   -1.8917988E+00
 1.6500    5.5179716E-02    1.8878053E+00   -1.8878053E+00
 1.6600    5.4381340E-02    1.8831111E+00   -1.8831111E+00
 1.6700    5.3558216E-02    1.8770200E+00   -1.8770200E+00
 1.6800    5.2720360E-02    1.8698501E+00   -1.8698501E+00
 1.6900    5.1895135E-02    1.8625585E+00   -1.8625585E+00
 1.7000    5.1100050E-02    1.8557909E+00   -1.8557909E+00
 1.7100    5.0321753E-02    1.8490891E+00   -1.8490891E+00
 1.7200    4.9519776E-02    1.8409646E+00   -1.8409646E+00
 1.7300    4.8654044E-02    1.8298733E+00   -1.8298733E+00
 1.7400    4.7716112E-02    1.8154045E+00   -1.8154045E+00
 1.7500    4.6740745E-02    1.7987947E+00   -1.7987947E+00
 1.7600    4.5787846E-02    1.7823189E+00   -1.7823189E+00
 1.7700    4.4905084E-02    1.7678764E+00   -1.7678764E+00
 1.7800    4.4096562E-02    1.7557174E+00   -1.7557174E+00
 1.7900    4.3321834E-02    1.7443063E+00   -1.7443063E+00
 1.8000    4.2529196E-02    1.7315780E+00   -1.7315780E+00
 1.8100    4.1699280E-02    1.7167046E+00   -1.7167046E+00
 1.8200    4.0862547E-02    1.7008972E+00   -1.7008972E+00
 1.8300    4.0072268E-02    1.6863820E+00   -1.6863820E+00
 1.8400    3.9352173E-02    1.6742266E+00   -1.6742266E+00
 1.8500    3.8663705E-02    1.6628642E+00   -1.6628642E+00
 1.8600    3.7925301E-02    1.6487879E+00   -1.6487879E+00
 1.8700    3.7071137E-02    1.6290296E+00   -1.6290296E+00
 1.8800    3.6100066E-02    1.6033693E+00   -1.6033693E+00
 1.8900    3.5074389E-02    1.5744308E+00   -1.5744308E+00
 1.9000    3.4074342E-02    1.5457688E+00   -1.5457688E+00
 1.9100    3.3150430E-02    1.5197277E+00   -1.5197277E+00
 1.9200    3.2309398E-02    1.4967222E+00   -1.4967222E+00
 1.9300    3.1534617E-02    1.4760873E+00   -1.4760873E+00
 1.9400    3.0815709E-02    1.4574226E+00   -1.4574226E+00
 1.9500    3.0163925E-02    1.4413417E+00   -1.4413417E+00
 1.9600    2.9606995E-02    1.4292768E+00   -1.4292768E+00
 1.9700    2.9170464E-02    1.4226093E+00   -1.4226093E+00
 1.9800    2.8856672E-02    1.4216297E+00   -1.4216297E+00
 1.9900    2.8632736E-02    1.4248819E+00   -1.4248819E+00
 2.0000    2.8436073E-02    1.4293529E+00   -1.4293529E+00
 2.0100    2.8197042E-02    1.4315467E+00   -1.4315467E+00
 2.0200    2.7866763E-02    1.4288911E+00   -1.4288911E+00
 2.0300    2.7434195E-02    1.4206731E+00   -1.4206731E+00
 2.0400    2.6923982E-02    1.4080222E+00   -1.4080222E+00
 2.0500    2.6378478E-02    1.3930520E+00   -1.3930520E+00
 2.0600    2.5834899E-02    1.3776886E+00   -1.3776886E+00
 2.0700    2.5309701E-02    1.3628171E+00   -1.3628171E+00
 2.0800    2.4797982E-02    1.3481955E+00   -1.3481955E+00
 2.0900    2.4286847E-02    1.3331333E+00   -1.3331333E+00
 2.1000    2.3772240E-02    1.3174027E+00   -1.3174027E+00
 2.1100    2.3266859E-02    1.3017049E+00   -1.3017049E+00
 2.1200    2.2794970E-02    1.2874210E+00   -1.2874210E+00
 2.1300    2.2380070E-02    1.2759408E+00   -1.2759408E+00
 2.1400    2.2034083E-02    1.2680384E+00   -1.2680384E+00
 2.1500    2.1751965E-02    1.2635292E+00   -1.2635292E+00
 2.1600    2.1510834E-02    1.2611728E+00   -1.2611728E+00
 2.1700    2.1272877E-02    1.2587966E+00   -1.2587966E+00
 2.1800    2.0993843E-02    1.2537611E+00   -1.2537611E+00
 2.1900    2.0637756E-02    1.2438287E+00   -1.2438287E+00
 2.2000    2.0192275E-02    1.2281191E+00   -1.2281191E+00
 2.2100    1.9674956E-02    1.2075585E+00   -1.2075585E+00
 2.2200    1.9125263E-02    1.1844677E+00   -1.1844677E+00
 2.2300    1.8587196E-02    1.1615381E+00   -1.1615381E+00
 2.2400    1.8093196E-02    1.1408306E+00   -1.1408306E+00
 2.2500    1.7657334E-02    1.1233110E+00   -1.1233110E+00
 2.2600    1.7278537E-02    1.1090055E+00   -1.1090055E+00
 2.2700    1.6948529E-02    1.0974724E+00   -1.0974724E+00
 2.2800    1.6657800E-02    1.0881711E+00   -1.0881711E+00
 2.2900    1.6396688E-02    1.0805304E+00   -1.0805304E+00
 2.3000    1.6153868E-02    1.0738462E+00   -1.0738462E+00
 2.3100    1.5916032E-02    1.0672560E+00   -1.0672560E+00
 2.3200    1.5669700E-02    1.0598552E+00   -1.0598552E+00
 2.3300    1.5403571E-02    1.0508558E+00   -1.0508558E+00
 2.3400    1.5110613E-02    1.0397374E+00   -1.0397374E+00
 2.3500    1.4790629E-02    1.0264368E+00   -1.0264368E+00
 2.3600    1.4452724E-02    1.0115412E+00   -1.0115412E+00
 2.3700    1.4114683E-02    9.9627147E-01   -9.9627147E-01
 2.3800    1.3796841E-02    9.8207225E-01   -9.8207225E-01
 2.3900    1.3512655E-02    9.6994328E-01   -9.6994328E-01
 2.4000    1.3262172E-02    9.5994646E-01   -9.5994646E-01
 2.4100    1.3033222E-02    9.5125232E-01   -9.5125232E-01
 2.4200    1.2809249E-02    9.4267996E-01   -9.4267996E-01
 2.4300    1.2577968E-02    9.3332501E-01   -9.3332501E-01
 2.4400    1.2335503E-02    9.2288244E-01   -9.2288244E-01
 2.4500    1.2085201E-02    9.1158239E-01   -9.1158239E-01
 2.4600    1.1834041E-02    8.9993915E-01   -8.9993915E-01
 2.4700    1.1589662E-02    8.8853500E-01   -8.8853500E-01
 2.4800    1.1358605E-02    8.7788619E-01   -8.7788619E-01
 2.4900    1.1144638E-02    8.6830941E-01   -8.6830941E-01
 2.5000    1.0946886E-02    8.5976644E-01   -8.5976644E-01
 2.5100    1.0759207E-02    8.5179987E-01   -8.5179987E-01
 2.5200    1.0572254E-02    8.4368148E-01   -8.4368148E-01
 2.5300    1.0377767E-02    8.3474691E-01   -8.3474691E-01
 2.5400    1.0172778E-02    8.2473963E-01   -8.2473963E-01
 2.5500    9.9611881E-03    8.1395682E-01   -8.1395682E-01
 2.5600    9.7515081E-03    8.0308512E-01   -8.0308512E-01
 2.5700    9.5517470E-03    7.9279138E-01   -7.9279138E-01
 2.5800    9.3645597E-03    7.8331536E-01   -7.8331536E-01
 2.5900    9.1860549E-03    7.7435201E-01   -7.7435201E-01
 2.6000    9.0091791E-03    7.6531774E-01   -7.6531774E-01
 2.6100    8.8289012E-03    7.5578372E-01   -7.5578372E-01
 2.6200    8.6447609E-03    7.4570221E-01   -7.4570221E-01
 2.6300    8.4586147E-03    7.3522557E-01   -7.3522557E-01
 2.6400    8.2700201E-03    7.2430967E-01   -7.2430967E-01
 2.6500    8.0743697E-03    7.1254163E-01   -7.1254163E-01
 2.6600    7.8665062E-03    6.9944735E-01   -6.9944735E-01
 2.6700    7.6469477E-03    6.8504722E-01   -6.8504722E-01
 2.6800    7.4247637E-03    6.7013467E-01   -6.7013467E-01
 2.6900    7.2139845E-03    6.5597853E-01   -6.5597853E-01
 2.7000    7.0262081E-03    6.4366278E-01   -6.4366278E-01
 2.7100    6.8649982E-03    6.3356164E-01   -6.3356164E-01
 2.7200    6.7256531E-03    6.2529094E-01   -6.2529094E-01
 2.7300    6.5996076E-03    6.1809222E-01   -6.1809222E-01
 2.7400    6.4797170E-03    6.1131778E-01   -6.1131778E-01
 2.7500    6.3627402E-03    6.0467142E-01   -6.0467142E-01
 2.7600    6.2481056E-03    5.9810356E-01   -5.9810356E-01
 2.7700    6.1351893E-03    5.9155805E-01   -5.9155805E-01
 2.7800    6.0221129E-03    5.8485519E-01   -5.8485519E-01
 2.7900    5.9069894E-03    5.7780922E-01   -5.7780922E-01
 2.8000    5.7900284E-03    5.7043559E-01   -5.7043559E-01
 2.8100    5.6743917E-03    5.6304333E-01   -5.6304333E-01
 2.8200    5.5650877E-03    5.5613483E-01   -5.5613483E-01
 2.8300    5.4667008E-03    5.5018410E-01   -5.5018410E-01
 2.8400    5.3812214E-03    5.4541541E-01   -5.4541541E-01
 2.8500    5.3068396E-03    5.4167095E-01   -5.4167095E-01
 2.8600    5.2380294E-03    5.3840597E-01   -5.3840597E-01
 2.8700    5.1670029E-03    5.3482582E-01   -5.3482582E-01
 2.8800    5.0864577E-03    5.3016405E-01   -5.3016405E-01
 2.8900    4.9929058E-03    5.2403335E-01   -5.2403335E-01
 2.9000    4.8888087E-03    5.1666484E-01   -5.1666484E-01
 2.9100    4.7815242E-03    5.0881769E-01   -5.0881769E-01
 2.9200    4.6788706E-03    5.0132181E-01   -5.0132181E-01
 2.9300    4.5839429E-03    4.9452050E-01   -4.9452050E-01
 2.9400    4.4929771E-03    4.8802124E-01   -4.8802124E-01
 2.9500    4.3980919E-03    4.8097023E-01   -4.8097023E-01
 2.9600    4.2930970E-03    4.7267647E-01   -4.7267647E-01
 2.9700    4.1781516E-03    4.6313431E-01   -4.6313431E-01
 2.9800    4.0598638E-03    4.5305806E-01   -4.5305806E-01
 2.9900    3.9469410E-03    4.4341755E-01   -4.4341755E-01
 3.0000    3.8449127E-03    4.3484938E-01   -4.3484938E-01
 3.0100    3.7538243E-03    4.2738257E-01   -4.2738257E-01
 3.0200    3.6699807E-03    4.2061768E-01   -4.2061768E-01
 3.0300    3.5895614E-03    4.1412983E-01   -4.1412983E-01
 3.0400    3.5110280E-03    4.0774752E-01   -4.0774752E-01
 3.0500    3.4349335E-03    4.0153914E-01   -4.0153914E-01
 3.0600    3.3621254E-03    3.9560943E-01   -3.9560943E-01
 3.0700    3.2923604E-03    3.8993658E-01   -3.8993658E-01
 3.0800    3.2244870E-03    3.8438986E-01   -3.8438986E-01
 3.0900    3.1576845E-03    3.7887466E-01   -3.7887466E-01
 3.1000    3.0923412E-03    3.7343985E-01   -3.7343985E-01
 3.1100    3.0296807E-03    3.6823706E-01   -3.6823706E-01
 3.1200    2.9705000E-03    3.6336961E-01   -3.6336961E-01
 3.1300    2.9141595E-03    3.5876648E-01   -3.5876648E-01
 3.1400    2.8586680E-03    3.5418722E-01   -3.5418722E-01
 3.1500    2.8017452E-03    3.4934908E-01   -3.4934908E-01
 3.1600    2.7420522E-03    3.4408025E-01   -3.4408025E-01
 3.1700    2.6798482E-03    3.3840641E-01   -3.3840641E-01
 3.1800    2.6168488E-03    3.3253911E-01   -3.3253911E-01
 3.1900    2.5554734E-03    3.2678537E-01   -3.2678537E-01
 3.2000    2.4978295E-03    3.2141979E-01   -3.2141979E-01
 3.2100    2.4448514E-03    3.1657192E-01   -3.1657192E-01
 3.2200    2.3960067E-03    3.1218327E-01   -3.1218327E-01
 3.2300    2.3497270E-03    3.0805788E-01   -3.0805788E-01
 3.2400    2.3043132E-03    3.0397747E-01   -3.0397747E-01
 3.2500    2.2588154E-03    2.9981774E-01   -2.9981774E-01
 3.2600    2.2134374E-03    2.9560536E-01   -2.9560536E-01
 3.2700    2.1692288E-03    2.9148133E-01   -2.9148133E-01
 3.2800    2.1271398E-03    2.8757663E-01   -2.8757663E-01
 3.2900    2.0869589E-03    2.8386742E-01   -2.8386742E-01
 3.3000    2.0469535E-03    2.8012103E-01   -2.8012103E-01
 3.3100    2.0047016E-03    2.7600414E-01   -2.7600414E-01
 3.3200    1.9586746E-03    2.7129908E-01   -2.7129908E-01
 3.3300    1.9094054E-03    2.6607035E-01   -2.6607035E-01
 3.3400    1.8593041E-03    2.6064730E-01   -2.6064730E-01
 3.3500    1.8112257E-03    2.5543008E-01   -2.5543008E-01
 3.3600    1.7668739E-03    2.5066516E-01   -2.5066516E-01
