# total charge: 2.000000 
# r(A)     rho (e/A^3)     4*pi*r^2*rho(e/A)  dip  
 0.0000    1.7627968E-02    0.0000000E+00    1.5957691E+01
 0.0100    1.7873473E-02    2.2460469E-05    1.5878079E+01
 0.0200    1.8183583E-02    9.1400655E-05    1.5641616E+01
 0.0300    1.8571242E-02    2.1003580E-04    1.5255303E+01
 0.0400    1.9050173E-02    3.8302645E-04    1.4730423E+01
 0.0500    1.9635382E-02    6.1686373E-04    1.4081996E+01
 0.0600    2.0343452E-02    9.2031610E-04    1.3328064E+01
 0.0700    2.1191144E-02    1.3048493E-03    1.2488852E+01
 0.0800    2.2192031E-02    1.7847890E-03    1.1585877E+01
 0.0900    2.3353094E-02    2.3770554E-03    1.0641033E+01
 0.1000    2.4673703E-02    3.1005890E-03    9.6757284E+00
 0.1100    2.6147509E-02    3.9758094E-03    8.7101113E+00
 0.1200    2.7765667E-02    5.0243567E-03    7.7624178E+00
 0.1300    2.9519492E-02    6.2691036E-03    6.8484746E+00
 0.1400    3.1401619E-02    7.7342458E-03    5.9813644E+00
 0.1500    3.3405879E-02    9.4452897E-03    5.1712585E+00
 0.1600    3.5526544E-02    1.1428857E-02    4.4254045E+00
 0.1700    3.7757641E-02    1.3712371E-02    3.7482507E+00
 0.1800    4.0092765E-02    1.6323786E-02    3.1416825E+00
 0.1900    4.2525458E-02    1.9291503E-02    2.6053411E+00
 0.2000    4.5049741E-02    2.2644469E-02    2.1369942E+00
 0.2100    4.7660323E-02    2.6412252E-02    1.7329316E+00
 0.2200    5.0352317E-02    3.0624901E-02    1.3883588E+00
 0.2300    5.3120687E-02    3.5312561E-02    1.0977689E+00
 0.2400    5.5959841E-02    4.0505017E-02    8.5527619E-01
 0.2500    5.8863542E-02    4.6231318E-02    6.5490070E-01
 0.2600    6.1825059E-02    5.2519562E-02    4.9079921E-01
 0.2700    6.4837397E-02    5.9396788E-02    3.5744060E-01
 0.2800    6.7893512E-02    6.6888922E-02    2.4972914E-01
 0.2900    7.0986444E-02    7.5020729E-02    1.6308057E-01
 0.3000    7.4109371E-02    8.3815724E-02    9.3458212E-02
 0.3100    7.7255579E-02    9.3296017E-02    3.7376745E-02
 0.3200    8.0418384E-02    1.0348208E-01   -8.1185553E-03
 0.3300    8.3591073E-02    1.1439252E-01   -4.5489767E-02
 0.3400    8.6766877E-02    1.2604385E-01   -7.6755084E-02
 0.3500    8.9938993E-02    1.3845032E-01   -1.0354302E-01
 0.3600    9.3100633E-02    1.5162384E-01   -1.2714776E-01
 0.3700    9.6245073E-02    1.6557388E-01   -1.4858267E-01
 0.3800    9.9365706E-02    1.8030741E-01   -1.6862954E-01
 0.3900    1.0245606E-01    1.9582888E-01   -1.8788267E-01
 0.4000    1.0550984E-01    2.1214011E-01   -2.0678690E-01
 0.4100    1.0852086E-01    2.2924021E-01   -2.2566974E-01
 0.4200    1.1148313E-01    2.4712552E-01   -2.4476780E-01
 0.4300    1.1439081E-01    2.6578956E-01   -2.6424815E-01
 0.4400    1.1723824E-01    2.8522297E-01   -2.8422527E-01
 0.4500    1.2001995E-01    3.0541357E-01   -3.0477422E-01
 0.4600    1.2273070E-01    3.2634635E-01   -3.2594071E-01
 0.4700    1.2536550E-01    3.4800351E-01   -3.4774871E-01
 0.4800    1.2791958E-01    3.7036451E-01   -3.7020606E-01
 0.4900    1.3038840E-01    3.9340601E-01   -3.9330845E-01
 0.5000    1.3276764E-01    4.1710184E-01   -4.1704237E-01
 0.5100    1.3505320E-01    4.4142313E-01   -4.4138724E-01
 0.5200    1.3724128E-01    4.6633856E-01   -4.6631711E-01
 0.5300    1.3932843E-01    4.9181454E-01   -4.9180185E-01
 0.5400    1.4131150E-01    5.1781533E-01   -5.1780790E-01
 0.5500    1.4318761E-01    5.4430296E-01   -5.4429865E-01
 0.5600    1.4495413E-01    5.7123722E-01   -5.7123475E-01
 0.5700    1.4660865E-01    5.9857582E-01   -5.9857441E-01
 0.5800    1.4814908E-01    6.2627461E-01   -6.2627382E-01
 0.5900    1.4957362E-01    6.5428789E-01   -6.5428745E-01
 0.6000    1.5088076E-01    6.8256849E-01   -6.8256824E-01
 0.6100    1.5206930E-01    7.1106791E-01   -7.1106778E-01
 0.6200    1.5313828E-01    7.3973644E-01   -7.3973637E-01
 0.6300    1.5408702E-01    7.6852328E-01   -7.6852324E-01
 0.6400    1.5491513E-01    7.9737687E-01   -7.9737685E-01
 0.6500    1.5562248E-01    8.2624513E-01   -8.2624512E-01
 0.6600    1.5620927E-01    8.5507567E-01   -8.5507567E-01
 0.6700    1.5667596E-01    8.8381595E-01   -8.8381595E-01
 0.6800    1.5702325E-01    9.1241337E-01   -9.1241337E-01
 0.6900    1.5725208E-01    9.4081543E-01   -9.4081543E-01
 0.7000    1.5736363E-01    9.6896993E-01   -9.6896992E-01
 0.7100    1.5735932E-01    9.9682527E-01   -9.9682527E-01
 0.7200    1.5724085E-01    1.0243308E+00   -1.0243308E+00
 0.7300    1.5701015E-01    1.0514371E+00   -1.0514371E+00
 0.7400    1.5666941E-01    1.0780962E+00   -1.0780962E+00
 0.7500    1.5622102E-01    1.1042613E+00   -1.1042613E+00
 0.7600    1.5566758E-01    1.1298876E+00   -1.1298876E+00
 0.7700    1.5501187E-01    1.1549316E+00   -1.1549316E+00
 0.7800    1.5425683E-01    1.1793521E+00   -1.1793521E+00
 0.7900    1.5340560E-01    1.2031098E+00   -1.2031098E+00
 0.8000    1.5246146E-01    1.2261679E+00   -1.2261679E+00
 0.8100    1.5142789E-01    1.2484920E+00   -1.2484920E+00
 0.8200    1.5030850E-01    1.2700508E+00   -1.2700508E+00
 0.8300    1.4910705E-01    1.2908157E+00   -1.2908157E+00
 0.8400    1.4782745E-01    1.3107611E+00   -1.3107611E+00
 0.8500    1.4647370E-01    1.3298645E+00   -1.3298645E+00
 0.8600    1.4504994E-01    1.3481068E+00   -1.3481068E+00
 0.8700    1.4356043E-01    1.3654730E+00   -1.3654730E+00
 0.8800    1.4200959E-01    1.3819517E+00   -1.3819517E+00
 0.8900    1.4040194E-01    1.3975360E+00   -1.3975360E+00
 0.9000    1.3874207E-01    1.4122222E+00   -1.4122222E+00
 0.9100    1.3703454E-01    1.4260104E+00   -1.4260104E+00
 0.9200    1.3528393E-01    1.4389037E+00   -1.4389037E+00
 0.9300    1.3349478E-01    1.4509086E+00   -1.4509086E+00
 0.9400    1.3167168E-01    1.4620357E+00   -1.4620357E+00
 0.9500    1.2981921E-01    1.4722991E+00   -1.4722991E+00
 0.9600    1.2794187E-01    1.4817162E+00   -1.4817162E+00
 0.9700    1.2604406E-01    1.4903069E+00   -1.4903069E+00
 0.9800    1.2412990E-01    1.4980918E+00   -1.4980918E+00
 0.9900    1.2220322E-01    1.5050915E+00   -1.5050915E+00
 1.0000    1.2026742E-01    1.5113250E+00   -1.5113250E+00
 1.0100    1.1832549E-01    1.5168091E+00   -1.5168091E+00
 1.0200    1.1638000E-01    1.5215581E+00   -1.5215581E+00
 1.0300    1.1443315E-01    1.5255841E+00   -1.5255841E+00
 1.0400    1.1248685E-01    1.5288972E+00   -1.5288972E+00
 1.0500    1.1054282E-01    1.5315071E+00   -1.5315071E+00
 1.0600    1.0860265E-01    1.5334231E+00   -1.5334231E+00
 1.0700    1.0666783E-01    1.5346554E+00   -1.5346554E+00
 1.0800    1.0473982E-01    1.5352150E+00   -1.5352150E+00
 1.0900    1.0282002E-01    1.5351136E+00   -1.5351136E+00
 1.1000    1.0090976E-01    1.5343641E+00   -1.5343641E+00
 1.1100    9.9010369E-02    1.5329800E+00   -1.5329800E+00
 1.1200    9.7123105E-02    1.5309763E+00   -1.5309763E+00
 1.1300    9.5249209E-02    1.5283687E+00   -1.5283687E+00
 1.1400    9.3389886E-02    1.5251741E+00   -1.5251741E+00
 1.1500    9.1546288E-02    1.5214101E+00   -1.5214101E+00
 1.1600    8.9719504E-02    1.5170948E+00   -1.5170948E+00
 1.1700    8.7910539E-02    1.5122463E+00   -1.5122463E+00
 1.1800    8.6120316E-02    1.5068829E+00   -1.5068829E+00
 1.1900    8.4349691E-02    1.5010228E+00   -1.5010228E+00
 1.2000    8.2599474E-02    1.4946849E+00   -1.4946849E+00
 1.2100    8.0870441E-02    1.4878886E+00   -1.4878886E+00
 1.2200    7.9163316E-02    1.4806537E+00   -1.4806537E+00
 1.2300    7.7478738E-02    1.4729996E+00   -1.4729996E+00
 1.2400    7.5817242E-02    1.4649447E+00   -1.4649447E+00
 1.2500    7.4179265E-02    1.4565065E+00   -1.4565065E+00
 1.2600    7.2565189E-02    1.4477024E+00   -1.4477024E+00
 1.2700    7.0975365E-02    1.4385499E+00   -1.4385499E+00
 1.2800    6.9410119E-02    1.4290670E+00   -1.4290670E+00
 1.2900    6.7869723E-02    1.4192711E+00   -1.4192711E+00
 1.3000    6.6354363E-02    1.4091786E+00   -1.4091786E+00
 1.3100    6.4864149E-02    1.3988050E+00   -1.3988050E+00
 1.3200    6.3399137E-02    1.3881649E+00   -1.3881649E+00
 1.3300    6.1959363E-02    1.3772732E+00   -1.3772732E+00
 1.3400    6.0544852E-02    1.3661446E+00   -1.3661446E+00
 1.3500    5.9155600E-02    1.3547940E+00   -1.3547940E+00
 1.3600    5.7791549E-02    1.3432350E+00   -1.3432350E+00
 1.3700    5.6452580E-02    1.3314805E+00   -1.3314805E+00
 1.3800    5.5138527E-02    1.3195419E+00   -1.3195419E+00
 1.3900    5.3849198E-02    1.3074308E+00   -1.3074308E+00
 1.4000    5.2584400E-02    1.2951583E+00   -1.2951583E+00
 1.4100    5.1343936E-02    1.2827359E+00   -1.2827359E+00
 1.4200    5.0127600E-02    1.2701747E+00   -1.2701747E+00
 1.4300    4.8935169E-02    1.2574856E+00   -1.2574856E+00
 1.4400    4.7766398E-02    1.2446789E+00   -1.2446789E+00
 1.4500    4.6621025E-02    1.2317645E+00   -1.2317645E+00
 1.4600    4.5498779E-02    1.2187519E+00   -1.2187519E+00
 1.4700    4.4399384E-02    1.2056506E+00   -1.2056506E+00
 1.4800    4.3322562E-02    1.1924699E+00   -1.1924699E+00
 1.4900    4.2268036E-02    1.1792190E+00   -1.1792190E+00
 1.5000    4.1235519E-02    1.1659068E+00   -1.1659068E+00
 1.5100    4.0224720E-02    1.1525421E+00   -1.1525421E+00
 1.5200    3.9235338E-02    1.1391330E+00   -1.1391330E+00
 1.5300    3.8267072E-02    1.1256878E+00   -1.1256878E+00
 1.5400    3.7319622E-02    1.1122145E+00   -1.1122145E+00
 1.5500    3.6392691E-02    1.0987210E+00   -1.0987210E+00
 1.5600    3.5485985E-02    1.0852153E+00   -1.0852153E+00
 1.5700    3.4599208E-02    1.0717052E+00   -1.0717052E+00
 1.5800    3.3732064E-02    1.0581980E+00   -1.0581980E+00
 1.5900    3.2884250E-02    1.0447011E+00   -1.0447011E+00
 1.6000    3.2055465E-02    1.0312214E+00   -1.0312214E+00
 1.6100    3.1245407E-02    1.0177657E+00   -1.0177657E+00
 1.6200    3.0453780E-02    1.0043408E+00   -1.0043408E+00
 1.6300    2.9680287E-02    9.9095327E-01   -9.9095327E-01
 1.6400    2.8924635E-02    9.7760956E-01   -9.7760956E-01
 1.6500    2.8186523E-02    9.6431574E-01   -9.6431574E-01
 1.6600    2.7465651E-02    9.5107755E-01   -9.5107755E-01
 1.6700    2.6761714E-02    9.3790043E-01   -9.3790043E-01
 1.6800    2.6074409E-02    9.2478952E-01   -9.2478952E-01
 1.6900    2.5403431E-02    9.1174974E-01   -9.1174974E-01
 1.7000    2.4748477E-02    8.9878576E-01   -8.9878576E-01
 1.7100    2.4109244E-02    8.8590200E-01   -8.8590200E-01
 1.7200    2.3485432E-02    8.7310266E-01   -8.7310266E-01
 1.7300    2.2876738E-02    8.6039163E-01   -8.6039163E-01
 1.7400    2.2282863E-02    8.4777256E-01   -8.4777256E-01
 1.7500    2.1703507E-02    8.3524885E-01   -8.3524885E-01
 1.7600    2.1138373E-02    8.2282362E-01   -8.2282362E-01
 1.7700    2.0587161E-02    8.1049970E-01   -8.1049970E-01
 1.7800    2.0049576E-02    7.9827965E-01   -7.9827965E-01
 1.7900    1.9525323E-02    7.8616579E-01   -7.8616579E-01
 1.8000    1.9014110E-02    7.7416027E-01   -7.7416027E-01
 1.8100    1.8515653E-02    7.6226511E-01   -7.6226511E-01
 1.8200    1.8029666E-02    7.5048209E-01   -7.5048209E-01
 1.8300    1.7555869E-02    7.3881272E-01   -7.3881272E-01
 1.8400    1.7093977E-02    7.2725819E-01   -7.2725819E-01
 1.8500    1.6643712E-02    7.1581947E-01   -7.1581947E-01
 1.8600    1.6204799E-02    7.0449740E-01   -7.0449740E-01
 1.8700    1.5776972E-02    6.9329285E-01   -6.9329285E-01
 1.8800    1.5359970E-02    6.8220663E-01   -6.8220663E-01
 1.8900    1.4953539E-02    6.7123944E-01   -6.7123944E-01
 1.9000    1.4557428E-02    6.6039186E-01   -6.6039186E-01
 1.9100    1.4171389E-02    6.4966435E-01   -6.4966435E-01
 1.9200    1.3795186E-02    6.3905741E-01   -6.3905741E-01
 1.9300    1.3428586E-02    6.2857163E-01   -6.2857163E-01
 1.9400    1.3071367E-02    6.1820761E-01   -6.1820761E-01
 1.9500    1.2723310E-02    6.0796584E-01   -6.0796584E-01
 1.9600    1.2384196E-02    5.9784669E-01   -5.9784669E-01
 1.9700    1.2053813E-02    5.8785033E-01   -5.8785033E-01
 1.9800    1.1731951E-02    5.7797688E-01   -5.7797688E-01
 1.9900    1.1418405E-02    5.6822646E-01   -5.6822646E-01
 2.0000    1.1112978E-02    5.5859921E-01   -5.5859921E-01
 2.0100    1.0815477E-02    5.4909523E-01   -5.4909523E-01
 2.0200    1.0525711E-02    5.3971445E-01   -5.3971445E-01
 2.0300    1.0243490E-02    5.3045663E-01   -5.3045663E-01
 2.0400    9.9686270E-03    5.2132139E-01   -5.2132139E-01
 2.0500    9.7009404E-03    5.1230834E-01   -5.1230834E-01
 2.0600    9.4402540E-03    5.0341713E-01   -5.0341713E-01
 2.0700    9.1863982E-03    4.9464750E-01   -4.9464750E-01
 2.0800    8.9392093E-03    4.8599930E-01   -4.8599930E-01
 2.0900    8.6985297E-03    4.7747242E-01   -4.7747242E-01
 2.1000    8.4642067E-03    4.6906682E-01   -4.6906682E-01
 2.1100    8.2360909E-03    4.6078242E-01   -4.6078242E-01
 2.1200    8.0140349E-03    4.5261904E-01   -4.5261904E-01
 2.1300    7.7978918E-03    4.4457627E-01   -4.4457627E-01
 2.1400    7.5875151E-03    4.3665353E-01   -4.3665353E-01
 2.1500    7.3827584E-03    4.2885003E-01   -4.2885003E-01
 2.1600    7.1834762E-03    4.2116476E-01   -4.2116476E-01
 2.1700    6.9895238E-03    4.1359656E-01   -4.1359656E-01
 2.1800    6.8007590E-03    4.0614418E-01   -4.0614418E-01
 2.1900    6.6170435E-03    3.9880636E-01   -3.9880636E-01
 2.2000    6.4382447E-03    3.9158199E-01   -3.9158199E-01
 2.2100    6.2642364E-03    3.8447008E-01   -3.8447008E-01
 2.2200    6.0948971E-03    3.7746978E-01   -3.7746978E-01
 2.2300    5.9301083E-03    3.7058020E-01   -3.7058020E-01
 2.2400    5.7697522E-03    3.6380031E-01   -3.6380031E-01
 2.2500    5.6137120E-03    3.5712893E-01   -3.5712893E-01
 2.2600    5.4618718E-03    3.5056475E-01   -3.5056475E-01
 2.2700    5.3141176E-03    3.4410639E-01   -3.4410639E-01
 2.2800    5.1703381E-03    3.3775245E-01   -3.3775245E-01
 2.2900    5.0304243E-03    3.3150146E-01   -3.3150146E-01
 2.3000    4.8942699E-03    3.2535198E-01   -3.2535198E-01
 2.3100    4.7617717E-03    3.1930256E-01   -3.1930256E-01
 2.3200    4.6328296E-03    3.1335178E-01   -3.1335178E-01
 2.3300    4.5073468E-03    3.0749827E-01   -3.0749827E-01
 2.3400    4.3852295E-03    3.0174071E-01   -3.0174071E-01
 2.3500    4.2663875E-03    2.9607783E-01   -2.9607783E-01
 2.3600    4.1507340E-03    2.9050845E-01   -2.9050845E-01
 2.3700    4.0381855E-03    2.8503148E-01   -2.8503148E-01
 2.3800    3.9286612E-03    2.7964583E-01   -2.7964583E-01
 2.3900    3.8220813E-03    2.7435039E-01   -2.7435039E-01
 2.4000    3.7183669E-03    2.6914393E-01   -2.6914393E-01
 2.4100    3.6174397E-03    2.6402512E-01   -2.6402512E-01
 2.4200    3.5192234E-03    2.5899265E-01   -2.5899265E-01
 2.4300    3.4236449E-03    2.5404528E-01   -2.5404528E-01
 2.4400    3.3306349E-03    2.4918193E-01   -2.4918193E-01
 2.4500    3.2401271E-03    2.4440162E-01   -2.4440162E-01
 2.4600    3.1520574E-03    2.3970340E-01   -2.3970340E-01
 2.4700    3.0663631E-03    2.3508631E-01   -2.3508631E-01
 2.4800    2.9829830E-03    2.3054940E-01   -2.3054940E-01
 2.4900    2.9018571E-03    2.2609168E-01   -2.2609168E-01
 2.5000    2.8229264E-03    2.2171212E-01   -2.2171212E-01
 2.5100    2.7461326E-03    2.1740965E-01   -2.1740965E-01
 2.5200    2.6714185E-03    2.1318315E-01   -2.1318315E-01
 2.5300    2.5987285E-03    2.0903153E-01   -2.0903153E-01
 2.5400    2.5280088E-03    2.0495375E-01   -2.0495375E-01
 2.5500    2.4592082E-03    2.0094885E-01   -2.0094885E-01
 2.5600    2.3922772E-03    1.9701591E-01   -1.9701591E-01
 2.5700    2.3271678E-03    1.9315405E-01   -1.9315405E-01
 2.5800    2.2638324E-03    1.8936231E-01   -1.8936231E-01
 2.5900    2.2022237E-03    1.8563969E-01   -1.8563969E-01
 2.6000    2.1422954E-03    1.8198513E-01   -1.8198513E-01
 2.6100    2.0840016E-03    1.7839757E-01   -1.7839757E-01
 2.6200    2.0272979E-03    1.7487592E-01   -1.7487592E-01
 2.6300    1.9721410E-03    1.7141914E-01   -1.7141914E-01
 2.6400    1.9184880E-03    1.6802612E-01   -1.6802612E-01
 2.6500    1.8662967E-03    1.6469572E-01   -1.6469572E-01
 2.6600    1.8155260E-03    1.6142679E-01   -1.6142679E-01
 2.6700    1.7661368E-03    1.5821830E-01   -1.5821830E-01
 2.6800    1.7180920E-03    1.5506932E-01   -1.5506932E-01
 2.6900    1.6713566E-03    1.5197899E-01   -1.5197899E-01
 2.7000    1.6258959E-03    1.4894644E-01   -1.4894644E-01
 2.7100    1.5816749E-03    1.4597069E-01   -1.4597069E-01
 2.7200    1.5386580E-03    1.4305063E-01   -1.4305063E-01
 2.7300    1.4968106E-03    1.4018515E-01   -1.4018515E-01
 2.7400    1.4560994E-03    1.3737320E-01   -1.3737320E-01
 2.7500    1.4164932E-03    1.3461385E-01   -1.3461385E-01
 2.7600    1.3779614E-03    1.3190616E-01   -1.3190616E-01
 2.7700    1.3404741E-03    1.2924919E-01   -1.2924919E-01
 2.7800    1.3040013E-03    1.2664192E-01   -1.2664192E-01
 2.7900    1.2685139E-03    1.2408335E-01   -1.2408335E-01
 2.8000    1.2339844E-03    1.2157257E-01   -1.2157257E-01
 2.8100    1.2003869E-03    1.1910877E-01   -1.1910877E-01
 2.8200    1.1676969E-03    1.1669123E-01   -1.1669123E-01
 2.8300    1.1358907E-03    1.1431923E-01   -1.1431923E-01
 2.8400    1.1049452E-03    1.1199208E-01   -1.1199208E-01
 2.8500    1.0748374E-03    1.0970903E-01   -1.0970903E-01
 2.8600    1.0455441E-03    1.0746927E-01   -1.0746927E-01
 2.8700    1.0170419E-03    1.0527191E-01   -1.0527191E-01
 2.8800    9.8930770E-04    1.0311604E-01   -1.0311604E-01
 2.8900    9.6231954E-04    1.0100081E-01   -1.0100081E-01
 2.9000    9.3605769E-04    9.8925551E-02   -9.8925551E-02
 2.9100    9.1050477E-04    9.6889802E-02   -9.6889802E-02
 2.9200    8.8564466E-04    9.4893196E-02   -9.4893196E-02
 2.9300    8.6146077E-04    9.2935280E-02   -9.2935280E-02
 2.9400    8.3793496E-04    9.1015391E-02   -9.1015391E-02
 2.9500    8.1504785E-04    8.9132688E-02   -8.9132688E-02
 2.9600    7.9278049E-04    8.7286331E-02   -8.7286331E-02
 2.9700    7.7111606E-04    8.5475670E-02   -8.5475670E-02
 2.9800    7.5004037E-04    8.3700304E-02   -8.3700304E-02
 2.9900    7.2954070E-04    8.1959966E-02   -8.1959966E-02
 3.0000    7.0960400E-04    8.0254321E-02   -8.0254321E-02
 3.0100    6.9021583E-04    7.8582849E-02   -7.8582849E-02
 3.0200    6.7136070E-04    7.6944870E-02   -7.6944870E-02
 3.0300    6.5302324E-04    7.5339677E-02   -7.5339677E-02
 3.0400    6.3518893E-04    7.3766631E-02   -7.3766631E-02
 3.0500    6.1784415E-04    7.2225155E-02   -7.2225155E-02
 3.0600    6.0097551E-04    7.0714666E-02   -7.0714666E-02
 3.0700    5.8456948E-04    6.9234530E-02   -6.9234530E-02
 3.0800    5.6861256E-04    6.7784087E-02   -6.7784087E-02
 3.0900    5.5309202E-04    6.6362726E-02   -6.6362726E-02
 3.1000    5.3799627E-04    6.4969947E-02   -6.4969947E-02
 3.1100    5.2331468E-04    6.3605338E-02   -6.3605338E-02
 3.1200    5.0903682E-04    6.2268477E-02   -6.2268477E-02
 3.1300    4.9515148E-04    6.0958830E-02   -6.0958830E-02
 3.1400    4.8164654E-04    5.9675712E-02   -5.9675712E-02
 3.1500    4.6850946E-04    5.8418356E-02   -5.8418356E-02
 3.1600    4.5572828E-04    5.7186037E-02   -5.7186037E-02
 3.1700    4.4329242E-04    5.5978169E-02   -5.5978169E-02
 3.1800    4.3119280E-04    5.4794328E-02   -5.4794328E-02
 3.1900    4.1942136E-04    5.3634196E-02   -5.3634196E-02
 3.2000    4.0797031E-04    5.2497471E-02   -5.2497471E-02
 3.2100    3.9683141E-04    5.1383771E-02   -5.1383771E-02
 3.2200    3.8599574E-04    5.0292604E-02   -5.0292604E-02
 3.2300    3.7545395E-04    4.9223397E-02   -4.9223397E-02
 3.2400    3.6519693E-04    4.8175585E-02   -4.8175585E-02
 3.2500    3.5521646E-04    4.7148694E-02   -4.7148694E-02
 3.2600    3.4550550E-04    4.6142384E-02   -4.6142384E-02
 3.2700    3.3605787E-04    4.5156414E-02   -4.5156414E-02
 3.2800    3.2686737E-04    4.4190520E-02   -4.4190520E-02
 3.2900    3.1792686E-04    4.3244301E-02   -4.3244301E-02
 3.3000    3.0922809E-04    4.2317176E-02   -4.2317176E-02
 3.3100    3.0076241E-04    4.1408491E-02   -4.1408491E-02
 3.3200    2.9252218E-04    4.0517705E-02   -4.0517705E-02
 3.3300    2.8450175E-04    3.9644530E-02   -3.9644530E-02
 3.3400    2.7669722E-04    3.8788911E-02   -3.8788911E-02
 3.3500    2.6910525E-04    3.7950862E-02   -3.7950862E-02
 3.3600    2.6172176E-04    3.7130282E-02   -3.7130282E-02
