# total charge: 6.000000 
# r(A)     rho (e/A^3)     4*pi*r^2*rho(e/A)  dip  
 0.0000    1.5648634E+00    0.0000000E+00    4.7873074E+01
 0.0100    1.5634944E+00    1.9647450E-03    4.7632341E+01
 0.0200    1.5617661E+00    7.8502928E-03    4.6917273E+01
 0.0300    1.5596080E+00    1.7638751E-02    4.5748899E+01
 0.0400    1.5569463E+00    3.1304262E-02    4.4161113E+01
 0.0500    1.5537017E+00    4.8810978E-02    4.2199028E+01
 0.0600    1.5497882E+00    7.0110766E-02    3.9916842E+01
 0.0700    1.5451203E+00    9.5141116E-02    3.7375331E+01
 0.0800    1.5396315E+00    1.2382451E-01    3.4639162E+01
 0.0900    1.5332928E+00    1.5607019E-01    3.1774160E+01
 0.1000    1.5261183E+00    1.9177768E-01    2.8844709E+01
 0.1100    1.5181547E+00    2.3084011E-01    2.5911421E+01
 0.1200    1.5094634E+00    2.7314606E-01    2.3029181E+01
 0.1300    1.5001055E+00    3.1857989E-01    2.0245651E+01
 0.1400    1.4901353E+00    3.6702161E-01    1.7600274E+01
 0.1500    1.4796003E+00    4.1834714E-01    1.5123764E+01
 0.1600    1.4685448E+00    4.7242952E-01    1.2838071E+01
 0.1700    1.4570127E+00    5.2914056E-01    1.0756749E+01
 0.1800    1.4450492E+00    5.8835237E-01    8.8856666E+00
 0.1900    1.4326987E+00    6.4993802E-01    7.2239598E+00
 0.2000    1.4200031E+00    7.1377143E-01    5.7651446E+00
 0.2100    1.4070004E+00    7.7972720E-01    4.4983043E+00
 0.2200    1.3937258E+00    8.4768123E-01    3.4092699E+00
 0.2300    1.3802135E+00    9.1751211E-01    2.4817324E+00
 0.2400    1.3664983E+00    9.8910282E-01    1.6982408E+00
 0.2500    1.3526158E+00    1.0623419E+00    1.0410541E+00
 0.2600    1.3386019E+00    1.1371244E+00    4.9283186E-01
 0.2700    1.3244923E+00    1.2133521E+00    3.7160117E-02
 0.2800    1.3103213E+00    1.2909331E+00   -3.4107891E-01
 0.2900    1.2961210E+00    1.3697818E+00   -6.5547795E-01
 0.3000    1.2819201E+00    1.4498174E+00   -9.1799563E-01
 0.3100    1.2677437E+00    1.5309631E+00   -1.1389448E+00
 0.3200    1.2536138E+00    1.6131457E+00   -1.3270551E+00
 0.3300    1.2395499E+00    1.6962965E+00   -1.4895883E+00
 0.3400    1.2255702E+00    1.7803521E+00   -1.6324858E+00
 0.3500    1.2116915E+00    1.8652541E+00   -1.7605322E+00
 0.3600    1.1979288E+00    1.9509488E+00   -1.8775206E+00
 0.3700    1.1842944E+00    2.0373845E+00   -1.9864109E+00
 0.3800    1.1707975E+00    2.1245102E+00   -2.0894766E+00
 0.3900    1.1574437E+00    2.2122743E+00   -2.1884356E+00
 0.4000    1.1442365E+00    2.3006239E+00   -2.2845643E+00
 0.4100    1.1311770E+00    2.3895060E+00   -2.3787946E+00
 0.4200    1.1182653E+00    2.4788673E+00   -2.4717942E+00
 0.4300    1.1055005E+00    2.5686547E+00   -2.5640304E+00
 0.4400    1.0928802E+00    2.6588129E+00   -2.6558198E+00
 0.4500    1.0803991E+00    2.7492808E+00   -2.7473628E+00
 0.4600    1.0680479E+00    2.8399864E+00   -2.8387695E+00
 0.4700    1.0558137E+00    2.9308452E+00   -2.9300808E+00
 0.4800    1.0436818E+00    3.0217634E+00   -3.0212881E+00
 0.4900    1.0316380E+00    3.1126434E+00   -3.1123507E+00
 0.5000    1.0196697E+00    3.2033869E+00   -3.2032084E+00
 0.5100    1.0077646E+00    3.2938917E+00   -3.2937840E+00
 0.5200    9.9590849E-01    3.3840439E+00   -3.3839795E+00
 0.5300    9.8408410E-01    3.4737121E+00   -3.4736740E+00
 0.5400    9.7227251E-01    3.5627503E+00   -3.5627281E+00
 0.5500    9.6045639E-01    3.6510089E+00   -3.6509960E+00
 0.5600    9.4862248E-01    3.7383446E+00   -3.7383372E+00
 0.5700    9.3676108E-01    3.8246211E+00   -3.8246169E+00
 0.5800    9.2486268E-01    3.9096971E+00   -3.9096947E+00
 0.5900    9.1291416E-01    3.9934093E+00   -3.9934080E+00
 0.6000    9.0089748E-01    4.0755642E+00   -4.0755635E+00
 0.6100    8.8879192E-01    4.1559435E+00   -4.1559431E+00
 0.6200    8.7657823E-01    4.2343224E+00   -4.2343222E+00
 0.6300    8.6424214E-01    4.3104876E+00   -4.3104875E+00
 0.6400    8.5177509E-01    4.3842443E+00   -4.3842442E+00
 0.6500    8.3917237E-01    4.4554108E+00   -4.4554107E+00
 0.6600    8.2643021E-01    4.5238054E+00   -4.5238054E+00
 0.6700    8.1354383E-01    4.5892363E+00   -4.5892363E+00
 0.6800    8.0050710E-01    4.6514984E+00   -4.6514984E+00
 0.6900    7.8731384E-01    4.7103799E+00   -4.7103799E+00
 0.7000    7.7396005E-01    4.7656757E+00   -4.7656757E+00
 0.7100    7.6044611E-01    4.8172036E+00   -4.8172036E+00
 0.7200    7.4677730E-01    4.8648109E+00   -4.8648109E+00
 0.7300    7.3296218E-01    4.9083684E+00   -4.9083684E+00
 0.7400    7.1901007E-01    4.9477560E+00   -4.9477560E+00
 0.7500    7.0493033E-01    4.9828589E+00   -4.9828589E+00
 0.7600    6.9073380E-01    5.0135778E+00   -5.0135778E+00
 0.7700    6.7643444E-01    5.0398432E+00   -5.0398432E+00
 0.7800    6.6204899E-01    5.0616161E+00   -5.0616161E+00
 0.7900    6.4759421E-01    5.0788689E+00   -5.0788689E+00
 0.8000    6.3308390E-01    5.0915628E+00   -5.0915628E+00
 0.8100    6.1852815E-01    5.0996383E+00   -5.0996383E+00
 0.8200    6.0393568E-01    5.1030316E+00   -5.1030316E+00
 0.8300    5.8931800E-01    5.1017098E+00   -5.1017098E+00
 0.8400    5.7469301E-01    5.0957059E+00   -5.0957059E+00
 0.8500    5.6008588E-01    5.0851332E+00   -5.0851332E+00
 0.8600    5.4552638E-01    5.0701700E+00   -5.0701700E+00
 0.8700    5.3104408E-01    5.0510183E+00   -5.0510183E+00
 0.8800    5.1666392E-01    5.0278620E+00   -5.0278620E+00
 0.8900    5.0240480E-01    5.0008480E+00   -5.0008480E+00
 0.9000    4.8828163E-01    4.9701017E+00   -4.9701017E+00
 0.9100    4.7430890E-01    4.9357587E+00   -4.9357587E+00
 0.9200    4.6050268E-01    4.8979876E+00   -4.8979876E+00
 0.9300    4.4688034E-01    4.8569878E+00   -4.8569878E+00
 0.9400    4.3345909E-01    4.8129759E+00   -4.8129759E+00
 0.9500    4.2025515E-01    4.7661764E+00   -4.7661764E+00
 0.9600    4.0728408E-01    4.7168250E+00   -4.7168250E+00
 0.9700    3.9456118E-01    4.6651722E+00   -4.6651722E+00
 0.9800    3.8210106E-01    4.6114792E+00   -4.6114792E+00
 0.9900    3.6991718E-01    4.5560109E+00   -4.5560109E+00
 1.0000    3.5802181E-01    4.4990347E+00   -4.4990347E+00
 1.0100    3.4642648E-01    4.4408253E+00   -4.4408253E+00
 1.0200    3.3514186E-01    4.3816621E+00   -4.3816621E+00
 1.0300    3.2417690E-01    4.3218170E+00   -4.3218170E+00
 1.0400    3.1353780E-01    4.2615389E+00   -4.2615389E+00
 1.0500    3.0322757E-01    4.2010432E+00   -4.2010432E+00
 1.0600    2.9324628E-01    4.1405125E+00   -4.1405125E+00
 1.0700    2.8359200E-01    4.0801055E+00   -4.0801055E+00
 1.0800    2.7426190E-01    4.0199704E+00   -4.0199704E+00
 1.0900    2.6525283E-01    3.9602526E+00   -3.9602526E+00
 1.1000    2.5656125E-01    3.9010929E+00   -3.9010929E+00
 1.1100    2.4818274E-01    3.8426196E+00   -3.8426196E+00
 1.1200    2.4011168E-01    3.7849417E+00   -3.7849417E+00
 1.1300    2.3234131E-01    3.7281484E+00   -3.7281484E+00
 1.1400    2.2486384E-01    3.6723088E+00   -3.6723088E+00
 1.1500    2.1767041E-01    3.6174700E+00   -3.6174700E+00
 1.1600    2.1075095E-01    3.5636528E+00   -3.5636528E+00
 1.1700    2.0409427E-01    3.5108511E+00   -3.5108511E+00
 1.1800    1.9768828E-01    3.4590338E+00   -3.4590338E+00
 1.1900    1.9152023E-01    3.4081480E+00   -3.4081480E+00
 1.2000    1.8557697E-01    3.3581217E+00   -3.3581217E+00
 1.2100    1.7984535E-01    3.3088708E+00   -3.3088708E+00
 1.2200    1.7431288E-01    3.2603108E+00   -3.2603108E+00
 1.2300    1.6896849E-01    3.2123719E+00   -3.2123719E+00
 1.2400    1.6380289E-01    3.1650079E+00   -3.1650079E+00
 1.2500    1.5880851E-01    3.1181978E+00   -3.1181978E+00
 1.2600    1.5397920E-01    3.0719421E+00   -3.0719421E+00
 1.2700    1.4930988E-01    3.0262574E+00   -3.0262574E+00
 1.2800    1.4479629E-01    2.9811734E+00   -2.9811734E+00
 1.2900    1.4043472E-01    2.9367283E+00   -2.9367283E+00
 1.3000    1.3622166E-01    2.8929621E+00   -2.8929621E+00
 1.3100    1.3215339E-01    2.8499075E+00   -2.8499075E+00
 1.3200    1.2822575E-01    2.8075853E+00   -2.8075853E+00
 1.3300    1.2443423E-01    2.7660053E+00   -2.7660053E+00
 1.3400    1.2077426E-01    2.7251716E+00   -2.7251716E+00
 1.3500    1.1724138E-01    2.6850868E+00   -2.6850868E+00
 1.3600    1.1383122E-01    2.6457516E+00   -2.6457516E+00
 1.3700    1.1053934E-01    2.6071610E+00   -2.6071610E+00
 1.3800    1.0736103E-01    2.5692995E+00   -2.5692995E+00
 1.3900    1.0429144E-01    2.5321425E+00   -2.5321425E+00
 1.4000    1.0132584E-01    2.4956642E+00   -2.4956642E+00
 1.4100    9.8460112E-02    2.4598488E+00   -2.4598488E+00
 1.4200    9.5690964E-02    2.4246970E+00   -2.4246970E+00
 1.4300    9.3015708E-02    2.3902220E+00   -2.3902220E+00
 1.4400    9.0431701E-02    2.3564355E+00   -2.3564355E+00
 1.4500    8.7935844E-02    2.3233348E+00   -2.3233348E+00
 1.4600    8.5524449E-02    2.2908986E+00   -2.2908986E+00
 1.4700    8.3193523E-02    2.2590927E+00   -2.2590927E+00
 1.4800    8.0939174E-02    2.2278814E+00   -2.2278814E+00
 1.4900    7.8757848E-02    2.1972336E+00   -2.1972336E+00
 1.5000    7.6646333E-02    2.1671240E+00   -2.1671240E+00
 1.5100    7.4601682E-02    2.1375308E+00   -2.1375308E+00
 1.5200    7.2621202E-02    2.1084362E+00   -2.1084362E+00
 1.5300    7.0702546E-02    2.0798297E+00   -2.0798297E+00
 1.5400    6.8843750E-02    2.0517093E+00   -2.0517093E+00
 1.5500    6.7043099E-02    2.0240785E+00   -2.0240785E+00
 1.5600    6.5298849E-02    1.9969380E+00   -1.9969380E+00
 1.5700    6.3608991E-02    1.9702787E+00   -1.9702787E+00
 1.5800    6.1971235E-02    1.9440803E+00   -1.9440803E+00
 1.5900    6.0383221E-02    1.9183170E+00   -1.9183170E+00
 1.6000    5.8842741E-02    1.8929656E+00   -1.8929656E+00
 1.6100    5.7347834E-02    1.8680076E+00   -1.8680076E+00
 1.6200    5.5896738E-02    1.8434288E+00   -1.8434288E+00
 1.6300    5.4487837E-02    1.8192176E+00   -1.8192176E+00
 1.6400    5.3119638E-02    1.7953646E+00   -1.7953646E+00
 1.6500    5.1790738E-02    1.7718618E+00   -1.7718618E+00
 1.6600    5.0499784E-02    1.7487010E+00   -1.7487010E+00
 1.6700    4.9245456E-02    1.7258735E+00   -1.7258735E+00
 1.6800    4.8026491E-02    1.7033711E+00   -1.7033711E+00
 1.6900    4.6841695E-02    1.6811864E+00   -1.6811864E+00
 1.7000    4.5689911E-02    1.6593119E+00   -1.6593119E+00
 1.7100    4.4569942E-02    1.6377370E+00   -1.6377370E+00
 1.7200    4.3480548E-02    1.6164481E+00   -1.6164481E+00
 1.7300    4.2420535E-02    1.5954317E+00   -1.5954317E+00
 1.7400    4.1388918E-02    1.5746805E+00   -1.5746805E+00
 1.7500    4.0385022E-02    1.5541978E+00   -1.5541978E+00
 1.7600    3.9408409E-02    1.5339956E+00   -1.5339956E+00
 1.7700    3.8458643E-02    1.5140853E+00   -1.5140853E+00
 1.7800    3.7535032E-02    1.4944681E+00   -1.4944681E+00
 1.7900    3.6636578E-02    1.4751318E+00   -1.4751318E+00
 1.8000    3.5762228E-02    1.4560606E+00   -1.4560606E+00
 1.8100    3.4911268E-02    1.4372511E+00   -1.4372511E+00
 1.8200    3.4083446E-02    1.4187182E+00   -1.4187182E+00
 1.8300    3.3278606E-02    1.4004808E+00   -1.4004808E+00
 1.8400    3.2496021E-02    1.3825336E+00   -1.3825336E+00
 1.8500    3.1734069E-02    1.3648317E+00   -1.3648317E+00
 1.8600    3.0990693E-02    1.3473085E+00   -1.3473085E+00
 1.8700    3.0264394E-02    1.3299186E+00   -1.3299186E+00
 1.8800    2.9554919E-02    1.3126693E+00   -1.3126693E+00
 1.8900    2.8863026E-02    1.2956131E+00   -1.2956131E+00
 1.9000    2.8189567E-02    1.2788084E+00   -1.2788084E+00
 1.9100    2.7534683E-02    1.2622829E+00   -1.2622829E+00
 1.9200    2.6897718E-02    1.2460279E+00   -1.2460279E+00
 1.9300    2.6277734E-02    1.2300206E+00   -1.2300206E+00
 1.9400    2.5674068E-02    1.2142497E+00   -1.2142497E+00
 1.9500    2.5086522E-02    1.1987249E+00   -1.1987249E+00
 1.9600    2.4515150E-02    1.1834681E+00   -1.1834681E+00
 1.9700    2.3959902E-02    1.1684963E+00   -1.1684963E+00
 1.9800    2.3420340E-02    1.1538077E+00   -1.1538077E+00
 1.9900    2.2895541E-02    1.1393756E+00   -1.1393756E+00
 2.0000    2.2384221E-02    1.1251537E+00   -1.1251537E+00
 2.0100    2.1885003E-02    1.1110883E+00   -1.1110883E+00
 2.0200    2.1396700E-02    1.0971333E+00   -1.0971333E+00
 2.0300    2.0918497E-02    1.0832593E+00   -1.0832593E+00
 2.0400    2.0449957E-02    1.0694552E+00   -1.0694552E+00
 2.0500    1.9990894E-02    1.0557226E+00   -1.0557226E+00
 2.0600    1.9541154E-02    1.0420643E+00   -1.0420643E+00
 2.0700    1.9100438E-02    1.0284753E+00   -1.0284753E+00
 2.0800    1.8668275E-02    1.0149409E+00   -1.0149409E+00
 2.0900    1.8244184E-02    1.0014445E+00   -1.0014445E+00
 2.1000    1.7827895E-02    9.8798082E-01   -9.8798082E-01
 2.1100    1.7419473E-02    9.7456268E-01   -9.7456268E-01
 2.1200    1.7019246E-02    9.6121799E-01   -9.6121799E-01
 2.1300    1.6627578E-02    9.4797755E-01   -9.4797755E-01
 2.1400    1.6244598E-02    9.3485955E-01   -9.3485955E-01
 2.1500    1.5869982E-02    9.2185630E-01   -9.2185630E-01
 2.1600    1.5502845E-02    9.0892653E-01   -9.0892653E-01
 2.1700    1.5141784E-02    8.9599666E-01   -8.9599666E-01
 2.1800    1.4785153E-02    8.8297557E-01   -8.8297557E-01
 2.1900    1.4431556E-02    8.6978367E-01   -8.6978367E-01
 2.2000    1.4080372E-02    8.5638563E-01   -8.5638563E-01
 2.2100    1.3732002E-02    8.4280724E-01   -8.4280724E-01
 2.2200    1.3387637E-02    8.2912446E-01   -8.2912446E-01
 2.2300    1.3048722E-02    8.1543163E-01   -8.1543163E-01
 2.2400    1.2716437E-02    8.0180978E-01   -8.0180978E-01
 2.2500    1.2391489E-02    7.8831249E-01   -7.8831249E-01
 2.2600    1.2074223E-02    7.7497189E-01   -7.7497189E-01
 2.2700    1.1764834E-02    7.6181126E-01   -7.6181126E-01
 2.2800    1.1463405E-02    7.4884716E-01   -7.4884716E-01
 2.2900    1.1169712E-02    7.3607628E-01   -7.3607628E-01
 2.3000    1.0883010E-02    7.2346005E-01   -7.2346005E-01
 2.3100    1.0602049E-02    7.1092474E-01   -7.1092474E-01
 2.3200    1.0325412E-02    6.9838229E-01   -6.9838229E-01
 2.3300    1.0051981E-02    6.8576194E-01   -6.8576194E-01
 2.3400    9.7813385E-03    6.7303844E-01   -6.7303844E-01
 2.3500    9.5139347E-03    6.6024596E-01   -6.6024596E-01
 2.3600    9.2509692E-03    6.4747217E-01   -6.4747217E-01
 2.3700    8.9939875E-03    6.3483203E-01   -6.3483203E-01
 2.3800    8.7443170E-03    6.2242879E-01   -6.2242879E-01
 2.3900    8.5025790E-03    6.1031823E-01   -6.1031823E-01
 2.4000    8.2685343E-03    5.9849549E-01   -5.9849549E-01
 2.4100    8.0413657E-03    5.8691304E-01   -5.8691304E-01
 2.4200    7.8202260E-03    5.7551931E-01   -5.7551931E-01
 2.4300    7.6046991E-03    5.6429271E-01   -5.6429271E-01
 2.4400    7.3948993E-03    5.5325046E-01   -5.5325046E-01
 2.4500    7.1912244E-03    5.4243147E-01   -5.4243147E-01
 2.4600    6.9940218E-03    5.3187192E-01   -5.3187192E-01
 2.4700    6.8034329E-03    5.2159314E-01   -5.2159314E-01
 2.4800    6.6194474E-03    5.1160521E-01   -5.1160521E-01
 2.4900    6.4419849E-03    5.0191279E-01   -5.0191279E-01
 2.5000    6.2708533E-03    4.9251167E-01   -4.9251167E-01
 2.5100    6.1056420E-03    4.8337996E-01   -4.8337996E-01
 2.5200    5.9457284E-03    4.7447793E-01   -4.7447793E-01
 2.5300    5.7904831E-03    4.6576377E-01   -4.6576377E-01
 2.5400    5.6395584E-03    4.5721702E-01   -4.5721702E-01
 2.5500    5.4930494E-03    4.4885258E-01   -4.4885258E-01
 2.5600    5.3513818E-03    4.4071287E-01   -4.4071287E-01
 2.5700    5.2149718E-03    4.3284069E-01   -4.3284069E-01
 2.5800    5.0838886E-03    4.2525096E-01   -4.2525096E-01
 2.5900    4.9577709E-03    4.1792259E-01   -4.1792259E-01
 2.6000    4.8360565E-03    4.1081654E-01   -4.1081654E-01
 2.6100    4.7183105E-03    4.0390329E-01   -4.0390329E-01
 2.6200    4.6043490E-03    3.9717389E-01   -3.9717389E-01
 2.6300    4.4940504E-03    3.9062433E-01   -3.9062433E-01
 2.6400    4.3870664E-03    3.8423058E-01   -3.8423058E-01
 2.6500    4.2827764E-03    3.7794361E-01   -3.7794361E-01
 2.6600    4.1805945E-03    3.7171594E-01   -3.7171594E-01
 2.6700    4.0803726E-03    3.6553773E-01   -3.6553773E-01
 2.6800    3.9825202E-03    3.5944913E-01   -3.5944913E-01
 2.6900    3.8877229E-03    3.5351654E-01   -3.5351654E-01
 2.7000    3.7964931E-03    3.4779234E-01   -3.4779234E-01
 2.7100    3.7088899E-03    3.4228856E-01   -3.4228856E-01
 2.7200    3.6245661E-03    3.3697967E-01   -3.3697967E-01
 2.7300    3.5430506E-03    3.3182760E-01   -3.3182760E-01
 2.7400    3.4640307E-03    3.2680803E-01   -3.2680803E-01
 2.7500    3.3874340E-03    3.2191862E-01   -3.2191862E-01
 2.7600    3.3132830E-03    3.1716596E-01   -3.1716596E-01
 2.7700    3.2414953E-03    3.1254661E-01   -3.1254661E-01
 2.7800    3.1718329E-03    3.0804187E-01   -3.0804187E-01
 2.7900    3.1040439E-03    3.0363101E-01   -3.0363101E-01
 2.8000    3.0380516E-03    2.9930989E-01   -2.9930989E-01
 2.8100    2.9740165E-03    2.9509773E-01   -2.9509773E-01
 2.8200    2.9122184E-03    2.9102615E-01   -2.9102615E-01
 2.8300    2.8528453E-03    2.8711835E-01   -2.8711835E-01
 2.8400    2.7958276E-03    2.8337200E-01   -2.8337200E-01
 2.8500    2.7407928E-03    2.7975367E-01   -2.7975367E-01
 2.8600    2.6871174E-03    2.7620312E-01   -2.7620312E-01
 2.8700    2.6340360E-03    2.7264363E-01   -2.7264363E-01
 2.8800    2.5808312E-03    2.6900134E-01   -2.6900134E-01
 2.8900    2.5271285E-03    2.6523625E-01   -2.6523625E-01
 2.9000    2.4731554E-03    2.6137092E-01   -2.6137092E-01
 2.9100    2.4196943E-03    2.5748762E-01   -2.5748762E-01
 2.9200    2.3676187E-03    2.5368064E-01   -2.5368064E-01
 2.9300    2.3172853E-03    2.4999114E-01   -2.4999114E-01
 2.9400    2.2682594E-03    2.4637534E-01   -2.4637534E-01
 2.9500    2.2196246E-03    2.4273557E-01   -2.4273557E-01
 2.9600    2.1706653E-03    2.3899354E-01   -2.3899354E-01
 2.9700    2.1214031E-03    2.3515053E-01   -2.3515053E-01
 2.9800    2.0725918E-03    2.3128963E-01   -2.3128963E-01
 2.9900    2.0252101E-03    2.2752144E-01   -2.2752144E-01
 3.0000    1.9798663E-03    2.2391760E-01   -2.2391760E-01
 3.0100    1.9365343E-03    2.2047941E-01   -2.2047941E-01
 3.0200    1.8947243E-03    2.1715497E-01   -2.1715497E-01
 3.0300    1.8538768E-03    2.1388286E-01   -2.1388286E-01
 3.0400    1.8136846E-03    2.1062931E-01   -2.1062931E-01
 3.0500    1.7741770E-03    2.0739892E-01   -2.0739892E-01
 3.0600    1.7355857E-03    2.0422024E-01   -2.0422024E-01
 3.0700    1.6981377E-03    2.0112198E-01   -2.0112198E-01
 3.0800    1.6619221E-03    1.9811710E-01   -1.9811710E-01
 3.0900    1.6268819E-03    1.9520136E-01   -1.9520136E-01
 3.1000    1.5928799E-03    1.9236067E-01   -1.9236067E-01
 3.1100    1.5597569E-03    1.8957784E-01   -1.8957784E-01
 3.1200    1.5273480E-03    1.8683449E-01   -1.8683449E-01
 3.1300    1.4954784E-03    1.8411055E-01   -1.8411055E-01
 3.1400    1.4639783E-03    1.8138602E-01   -1.8138602E-01
 3.1500    1.4327304E-03    1.7864688E-01   -1.7864688E-01
 3.1600    1.4017281E-03    1.7589270E-01   -1.7589270E-01
 3.1700    1.3711010E-03    1.7314017E-01   -1.7314017E-01
 3.1800    1.3410739E-03    1.7041853E-01   -1.7041853E-01
 3.1900    1.3118731E-03    1.6775793E-01   -1.6775793E-01
 3.2000    1.2836246E-03    1.6517635E-01   -1.6517635E-01
 3.2100    1.2563013E-03    1.6267235E-01   -1.6267235E-01
 3.2200    1.2297465E-03    1.6022755E-01   -1.6022755E-01
 3.2300    1.2037571E-03    1.5781700E-01   -1.5781700E-01
 3.2400    1.1781799E-03    1.5542165E-01   -1.5542165E-01
 3.2500    1.1529772E-03    1.5303731E-01   -1.5303731E-01
 3.2600    1.1282406E-03    1.5067693E-01   -1.5067693E-01
 3.2700    1.1041400E-03    1.4836433E-01   -1.4836433E-01
 3.2800    1.0808141E-03    1.4611962E-01   -1.4611962E-01
 3.2900    1.0582470E-03    1.4394239E-01   -1.4394239E-01
 3.3000    1.0362223E-03    1.4180471E-01   -1.4180471E-01
 3.3100    1.0144120E-03    1.3966264E-01   -1.3966264E-01
 3.3200    9.9256156E-04    1.3748125E-01   -1.3748125E-01
 3.3300    9.7063999E-04    1.3525599E-01   -1.3525599E-01
 3.3400    9.4885083E-04    1.3301504E-01   -1.3301504E-01
 3.3500    9.2750146E-04    1.3080191E-01   -1.3080191E-01
 3.3600    9.0683168E-04    1.2865157E-01   -1.2865157E-01
