# total charge: 7.000000 
# r(A)     rho (e/A^3)     4*pi*r^2*rho(e/A)  dip  
 0.0000    2.5213789E+00    0.0000000E+00    5.5851919E+01
 0.0100    2.5189314E+00    3.1653826E-03    5.5570191E+01
 0.0200    2.5158412E+00    1.2645997E-02    5.4733331E+01
 0.0300    2.5119808E+00    2.8409833E-02    5.3365884E+01
 0.0400    2.5072166E+00    5.0410580E-02    5.1507409E+01
 0.0500    2.5014041E+00    7.8583926E-02    4.9210562E+01
 0.0600    2.4943851E+00    1.1284332E-01    4.6538601E+01
 0.0700    2.4860016E+00    1.5307608E-01    4.3562475E+01
 0.0800    2.4761284E+00    1.9914206E-01    4.0357675E+01
 0.0900    2.4647069E+00    2.5087661E-01    3.7001058E+01
 0.1000    2.4517553E+00    3.0809666E-01    3.3567805E+01
 0.1100    2.4373491E+00    3.7060645E-01    3.0128698E+01
 0.1200    2.4215894E+00    4.3820049E-01    2.6747847E+01
 0.1300    2.4045758E+00    5.1066377E-01    2.3480939E+01
 0.1400    2.3863952E+00    5.8777120E-01    2.0374074E+01
 0.1500    2.3671219E+00    6.6928794E-01    1.7463175E+01
 0.1600    2.3468246E+00    7.5497134E-01    1.4773946E+01
 0.1700    2.3255731E+00    8.4457400E-01    1.2322297E+01
 0.1800    2.3034395E+00    9.3784635E-01    1.0115176E+01
 0.1900    2.2804955E+00    1.0345376E+00    8.1516765E+00
 0.2000    2.2568073E+00    1.1343951E+00    6.4243403E+00
 0.2100    2.2324337E+00    1.2371633E+00    4.9205402E+00
 0.2200    2.2074287E+00    1.3425853E+00    3.6238577E+00
 0.2300    2.1818456E+00    1.4504059E+00    2.5153794E+00
 0.2400    2.1557410E+00    1.5603748E+00    1.5748595E+00
 0.2500    2.1291742E+00    1.6722495E+00    7.8171256E-01
 0.2600    2.1022056E+00    1.7857956E+00    1.1582010E-01
 0.2700    2.0748938E+00    1.9007861E+00   -4.4185526E-01
 0.2800    2.0472941E+00    2.0170012E+00   -9.0883799E-01
 0.2900    2.0194588E+00    2.1342282E+00   -1.3008736E+00
 0.3000    1.9914373E+00    2.2522626E+00   -1.6318038E+00
 0.3100    1.9632776E+00    2.3709094E+00   -1.9135547E+00
 0.3200    1.9350256E+00    2.4899839E+00   -2.1562116E+00
 0.3300    1.9067255E+00    2.6093114E+00   -2.3681517E+00
 0.3400    1.8784179E+00    2.7287259E+00   -2.5562152E+00
 0.3500    1.8501395E+00    2.8480685E+00   -2.7258929E+00
 0.3600    1.8219227E+00    2.9671863E+00   -2.8815200E+00
 0.3700    1.7937957E+00    3.0859316E+00   -3.0264624E+00
 0.3800    1.7657840E+00    3.2041633E+00   -3.1632907E+00
 0.3900    1.7379111E+00    3.3217476E+00   -3.2939359E+00
 0.4000    1.7101989E+00    3.4385588E+00   -3.4198226E+00
 0.4100    1.6826664E+00    3.5544760E+00   -3.5419794E+00
 0.4200    1.6553282E+00    3.6693788E+00   -3.6611268E+00
 0.4300    1.6281932E+00    3.7831426E+00   -3.7777476E+00
 0.4400    1.6012663E+00    3.8956396E+00   -3.8921477E+00
 0.4500    1.5745518E+00    4.0067463E+00   -4.0045086E+00
 0.4600    1.5480570E+00    4.1163517E+00   -4.1149320E+00
 0.4700    1.5217918E+00    4.2243590E+00   -4.2234673E+00
 0.4800    1.4957646E+00    4.3306748E+00   -4.3301203E+00
 0.4900    1.4699767E+00    4.4351926E+00   -4.4348511E+00
 0.5000    1.4444216E+00    4.5377842E+00   -4.5375761E+00
 0.5100    1.4190884E+00    4.6383089E+00   -4.6381833E+00
 0.5200    1.3939688E+00    4.7366316E+00   -4.7365565E+00
 0.5300    1.3690596E+00    4.8326346E+00   -4.8325902E+00
 0.5400    1.3443596E+00    4.9262092E+00   -4.9261832E+00
 0.5500    1.3198631E+00    5.0172312E+00   -5.0172161E+00
 0.5600    1.2955547E+00    5.1055397E+00   -5.1055311E+00
 0.5700    1.2714120E+00    5.1909383E+00   -5.1909334E+00
 0.5800    1.2474125E+00    5.2732205E+00   -5.2732178E+00
 0.5900    1.2235419E+00    5.3522047E+00   -5.3522032E+00
 0.6000    1.1997967E+00    5.4277522E+00   -5.4277514E+00
 0.6100    1.1761808E+00    5.4997584E+00   -5.4997579E+00
 0.6200    1.1526981E+00    5.5681228E+00   -5.5681226E+00
 0.6300    1.1293467E+00    5.6327210E+00   -5.6327208E+00
 0.6400    1.1061185E+00    5.6933972E+00   -5.6933971E+00
 0.6500    1.0830038E+00    5.7499830E+00   -5.7499830E+00
 0.6600    1.0599963E+00    5.8023255E+00   -5.8023255E+00
 0.6700    1.0370962E+00    5.8503052E+00   -5.8503052E+00
 0.6800    1.0143085E+00    5.8938317E+00   -5.8938317E+00
 0.6900    9.9163862E-01    5.9328242E+00   -5.9328242E+00
 0.7000    9.6908986E-01    5.9671917E+00   -5.9671917E+00
 0.7100    9.4666218E-01    5.9968279E+00   -5.9968279E+00
 0.7200    9.2435458E-01    6.0216215E+00   -6.0216215E+00
 0.7300    9.0216848E-01    6.0414785E+00   -6.0414785E+00
 0.7400    8.8011025E-01    6.0563419E+00   -6.0563419E+00
 0.7500    8.5819079E-01    6.0661933E+00   -6.0661933E+00
 0.7600    8.3642273E-01    6.0710370E+00   -6.0710370E+00
 0.7700    8.1481779E-01    6.0708823E+00   -6.0708823E+00
 0.7800    7.9338705E-01    6.0657454E+00   -6.0657454E+00
 0.7900    7.7214420E-01    6.0556736E+00   -6.0556736E+00
 0.8000    7.5110866E-01    6.0407742E+00   -6.0407742E+00
 0.8100    7.3030557E-01    6.0212203E+00   -6.0212203E+00
 0.8200    7.0976196E-01    5.9972242E+00   -5.9972242E+00
 0.8300    6.8950142E-01    5.9689950E+00   -5.9689950E+00
 0.8400    6.6954073E-01    5.9367045E+00   -5.9367045E+00
 0.8500    6.4988992E-01    5.9004824E+00   -5.9004824E+00
 0.8600    6.3055566E-01    5.8604396E+00   -5.8604396E+00
 0.8700    6.1154574E-01    5.8167087E+00   -5.8167087E+00
 0.8800    5.9287260E-01    5.7694789E+00   -5.7694789E+00
 0.8900    5.7455382E-01    5.7190066E+00   -5.7190066E+00
 0.9000    5.5660970E-01    5.6655967E+00   -5.6655967E+00
 0.9100    5.3905980E-01    5.6095703E+00   -5.6095703E+00
 0.9200    5.2192084E-01    5.5512419E+00   -5.5512419E+00
 0.9300    5.0520676E-01    5.4909175E+00   -5.4909175E+00
 0.9400    4.8892986E-01    5.4289037E+00   -5.4289037E+00
 0.9500    4.7310105E-01    5.3655097E+00   -5.3655097E+00
 0.9600    4.5772892E-01    5.3010351E+00   -5.3010351E+00
 0.9700    4.4281849E-01    5.2357522E+00   -5.2357522E+00
 0.9800    4.2837085E-01    5.1698975E+00   -5.1698975E+00
 0.9900    4.1438359E-01    5.1036726E+00   -5.1036726E+00
 1.0000    4.0085166E-01    5.0372505E+00   -5.0372505E+00
 1.0100    3.8776856E-01    4.9707876E+00   -4.9707876E+00
 1.0200    3.7512811E-01    4.9044444E+00   -4.9044444E+00
 1.0300    3.6292601E-01    4.8384072E+00   -4.8384072E+00
 1.0400    3.5115984E-01    4.7728896E+00   -4.7728896E+00
 1.0500    3.3982673E-01    4.7081034E+00   -4.7081034E+00
 1.0600    3.2892021E-01    4.6442132E+00   -4.6442132E+00
 1.0700    3.1842845E-01    4.5813058E+00   -4.5813058E+00
 1.0800    3.0833492E-01    4.5193928E+00   -4.5193928E+00
 1.0900    2.9862067E-01    4.4584379E+00   -4.4584379E+00
 1.1000    2.8926644E-01    4.3983855E+00   -4.3983855E+00
 1.1100    2.8025340E-01    4.3391704E+00   -4.3391704E+00
 1.1200    2.7156272E-01    4.2807124E+00   -4.2807124E+00
 1.1300    2.6317518E-01    4.2229085E+00   -4.2229085E+00
 1.1400    2.5507154E-01    4.1656385E+00   -4.1656385E+00
 1.1500    2.4723363E-01    4.1087819E+00   -4.1087819E+00
 1.1600    2.3964538E-01    4.0522377E+00   -4.0522377E+00
 1.1700    2.3229338E-01    3.9959351E+00   -3.9959351E+00
 1.1800    2.2516678E-01    3.9398366E+00   -3.9398366E+00
 1.1900    2.1825706E-01    3.8839362E+00   -3.8839362E+00
 1.2000    2.1155770E-01    3.8282580E+00   -3.8282580E+00
 1.2100    2.0506384E-01    3.7728514E+00   -3.7728514E+00
 1.2200    1.9877168E-01    3.7177829E+00   -3.7177829E+00
 1.2300    1.9267779E-01    3.6631250E+00   -3.6631250E+00
 1.2400    1.8677866E-01    3.6089469E+00   -3.6089469E+00
 1.2500    1.8107045E-01    3.5553100E+00   -3.5553100E+00
 1.2600    1.7554895E-01    3.5022664E+00   -3.5022664E+00
 1.2700    1.7020964E-01    3.4498600E+00   -3.4498600E+00
 1.2800    1.6504778E-01    3.3981261E+00   -3.3981261E+00
 1.2900    1.6005833E-01    3.3470913E+00   -3.3470913E+00
 1.3000    1.5523601E-01    3.2967730E+00   -3.2967730E+00
 1.3100    1.5057546E-01    3.2471822E+00   -3.2471822E+00
 1.3200    1.4607150E-01    3.1983296E+00   -3.1983296E+00
 1.3300    1.4171925E-01    3.1502281E+00   -3.1502281E+00
 1.3400    1.3751405E-01    3.1028912E+00   -3.1028912E+00
 1.3500    1.3345104E-01    3.0563237E+00   -3.0563237E+00
 1.3600    1.2952482E-01    3.0105143E+00   -3.0105143E+00
 1.3700    1.2572958E-01    2.9654353E+00   -2.9654353E+00
 1.3800    1.2205934E-01    2.9210504E+00   -2.9210504E+00
 1.3900    1.1850852E-01    2.8773259E+00   -2.8773259E+00
 1.4000    1.1507222E-01    2.8342387E+00   -2.8342387E+00
 1.4100    1.1174626E-01    2.7917793E+00   -2.7917793E+00
 1.4200    1.0852702E-01    2.7499478E+00   -2.7499478E+00
 1.4300    1.0541107E-01    2.7087451E+00   -2.7087451E+00
 1.4400    1.0239478E-01    2.6681649E+00   -2.6681649E+00
 1.4500    9.9474275E-02    2.6281893E+00   -2.6281893E+00
 1.4600    9.6645511E-02    2.5887926E+00   -2.5887926E+00
 1.4700    9.3904544E-02    2.5499469E+00   -2.5499469E+00
 1.4800    9.1247722E-02    2.5116281E+00   -2.5116281E+00
 1.4900    8.8671684E-02    2.4738158E+00   -2.4738158E+00
 1.5000    8.6173266E-02    2.4364917E+00   -2.4364917E+00
 1.5100    8.3749452E-02    2.3996380E+00   -2.3996380E+00
 1.5200    8.1397483E-02    2.3632410E+00   -2.3632410E+00
 1.5300    7.9115040E-02    2.3272968E+00   -2.3272968E+00
 1.5400    7.6900319E-02    2.2918144E+00   -2.2918144E+00
 1.5500    7.4751857E-02    2.2568113E+00   -2.2568113E+00
 1.5600    7.2668134E-02    2.2223020E+00   -2.2223020E+00
 1.5700    7.0647229E-02    2.1882871E+00   -2.1882871E+00
 1.5800    6.8686761E-02    2.1547509E+00   -2.1547509E+00
 1.5900    6.6784159E-02    2.1216687E+00   -2.1216687E+00
 1.6000    6.4936986E-02    2.0890169E+00   -2.0890169E+00
 1.6100    6.3143096E-02    2.0567783E+00   -2.0567783E+00
 1.6200    6.1400605E-02    2.0249418E+00   -2.0249418E+00
 1.6300    5.9707807E-02    1.9934998E+00   -1.9934998E+00
 1.6400    5.8063140E-02    1.9624476E+00   -1.9624476E+00
 1.6500    5.6465166E-02    1.9317831E+00   -1.9317831E+00
 1.6600    5.4912559E-02    1.9015061E+00   -1.9015061E+00
 1.6700    5.3404117E-02    1.8716194E+00   -1.8716194E+00
 1.6800    5.1938783E-02    1.8421297E+00   -1.8421297E+00
 1.6900    5.0515599E-02    1.8130458E+00   -1.8130458E+00
 1.7000    4.9133562E-02    1.7843743E+00   -1.7843743E+00
 1.7100    4.7791471E-02    1.7561131E+00   -1.7561131E+00
 1.7200    4.6487907E-02    1.7282507E+00   -1.7282507E+00
 1.7300    4.5221387E-02    1.7007714E+00   -1.7007714E+00
 1.7400    4.3990582E-02    1.6736632E+00   -1.6736632E+00
 1.7500    4.2794446E-02    1.6469233E+00   -1.6469233E+00
 1.7600    4.1632146E-02    1.6205558E+00   -1.6205558E+00
 1.7700    4.0502886E-02    1.5945655E+00   -1.5945655E+00
 1.7800    3.9405752E-02    1.5689514E+00   -1.5689514E+00
 1.7900    3.8339702E-02    1.5437062E+00   -1.5437062E+00
 1.8000    3.7303687E-02    1.5188211E+00   -1.5188211E+00
 1.8100    3.6296805E-02    1.4942918E+00   -1.4942918E+00
 1.8200    3.5318338E-02    1.4701204E+00   -1.4701204E+00
 1.8300    3.4367638E-02    1.4463111E+00   -1.4463111E+00
 1.8400    3.3443945E-02    1.4228628E+00   -1.4228628E+00
 1.8500    3.2546286E-02    1.3997638E+00   -1.3997638E+00
 1.8600    3.1673561E-02    1.3769959E+00   -1.3769959E+00
 1.8700    3.0824755E-02    1.3545427E+00   -1.3545427E+00
 1.8800    2.9999118E-02    1.3323982E+00   -1.3323982E+00
 1.8900    2.9196156E-02    1.3105668E+00   -1.3105668E+00
 1.9000    2.8415477E-02    1.2890567E+00   -1.2890567E+00
 1.9100    2.7656621E-02    1.2678729E+00   -1.2678729E+00
 1.9200    2.6919015E-02    1.2470144E+00   -1.2470144E+00
 1.9300    2.6202035E-02    1.2264773E+00   -1.2264773E+00
 1.9400    2.5505086E-02    1.2062577E+00   -1.2062577E+00
 1.9500    2.4827622E-02    1.1863538E+00   -1.1863538E+00
 1.9600    2.4169124E-02    1.1667637E+00   -1.1667637E+00
 1.9700    2.3529056E-02    1.1474845E+00   -1.1474845E+00
 1.9800    2.2906841E-02    1.1285101E+00   -1.1285101E+00
 1.9900    2.2301843E-02    1.1098308E+00   -1.1098308E+00
 2.0000    2.1713379E-02    1.0914335E+00   -1.0914335E+00
 2.0100    2.1140769E-02    1.0733040E+00   -1.0733040E+00
 2.0200    2.0583404E-02    1.0554309E+00   -1.0554309E+00
 2.0300    2.0040796E-02    1.0378078E+00   -1.0378078E+00
 2.0400    1.9512569E-02    1.0204334E+00   -1.0204334E+00
 2.0500    1.8998402E-02    1.0033089E+00   -1.0033089E+00
 2.0600    1.8497967E-02    9.8643462E-01   -9.8643462E-01
 2.0700    1.8010916E-02    9.6980934E-01   -9.6980934E-01
 2.0800    1.7536914E-02    9.5343196E-01   -9.5343196E-01
 2.0900    1.7075692E-02    9.3730458E-01   -9.3730458E-01
 2.1000    1.6627050E-02    9.2143278E-01   -9.2143278E-01
 2.1100    1.6190795E-02    9.0582218E-01   -9.0582218E-01
 2.1200    1.5766652E-02    8.9047365E-01   -8.9047365E-01
 2.1300    1.5354237E-02    8.7538138E-01   -8.7538138E-01
 2.1400    1.4953098E-02    8.6053510E-01   -8.6053510E-01
 2.1500    1.4562789E-02    8.4592397E-01   -8.4592397E-01
 2.1600    1.4182901E-02    8.3153867E-01   -8.3153867E-01
 2.1700    1.3813057E-02    8.1737085E-01   -8.1737085E-01
 2.1800    1.3452889E-02    8.0341218E-01   -8.0341218E-01
 2.1900    1.3102055E-02    7.8965520E-01   -7.8965520E-01
 2.2000    1.2760276E-02    7.7609575E-01   -7.7609575E-01
 2.2100    1.2427367E-02    7.6273474E-01   -7.6273474E-01
 2.2200    1.2103211E-02    7.4957731E-01   -7.4957731E-01
 2.2300    1.1787717E-02    7.3662981E-01   -7.3662981E-01
 2.2400    1.1480755E-02    7.2389627E-01   -7.2389627E-01
 2.2500    1.1182133E-02    7.1137655E-01   -7.1137655E-01
 2.2600    1.0891607E-02    6.9906687E-01   -6.9906687E-01
 2.2700    1.0608914E-02    6.8696169E-01   -6.8696169E-01
 2.2800    1.0333797E-02    6.7505548E-01   -6.7505548E-01
 2.2900    1.0066017E-02    6.6334348E-01   -6.6334348E-01
 2.3000    9.8053542E-03    6.5182171E-01   -6.5182171E-01
 2.3100    9.5516064E-03    6.4048688E-01   -6.4048688E-01
 2.3200    9.3045835E-03    6.2933629E-01   -6.2933629E-01
 2.3300    9.0641029E-03    6.1836732E-01   -6.1836732E-01
 2.3400    8.8299792E-03    6.0757691E-01   -6.0757691E-01
 2.3500    8.6020286E-03    5.9696171E-01   -5.9696171E-01
 2.3600    8.3800849E-03    5.8651927E-01   -5.8651927E-01
 2.3700    8.1640140E-03    5.7624915E-01   -5.7624915E-01
 2.3800    7.9537070E-03    5.6615242E-01   -5.6615242E-01
 2.3900    7.7490526E-03    5.5622983E-01   -5.5622983E-01
 2.4000    7.5499102E-03    5.4647983E-01   -5.4647983E-01
 2.4100    7.3561057E-03    5.3689815E-01   -5.3689815E-01
 2.4200    7.1674487E-03    5.2747902E-01   -5.2747902E-01
 2.4300    6.9837572E-03    5.1821686E-01   -5.1821686E-01
 2.4400    6.8048717E-03    5.0910745E-01   -5.0910745E-01
 2.4500    6.6306588E-03    5.0014821E-01   -5.0014821E-01
 2.4600    6.4610075E-03    4.9133797E-01   -4.9133797E-01
 2.4700    6.2958223E-03    4.8267659E-01   -4.8267659E-01
 2.4800    6.1350142E-03    4.7416424E-01   -4.7416424E-01
 2.4900    5.9784873E-03    4.6580041E-01   -4.6580041E-01
 2.5000    5.8261276E-03    4.5758299E-01   -4.5758299E-01
 2.5100    5.6778012E-03    4.4950807E-01   -4.4950807E-01
 2.5200    5.5333656E-03    4.4157076E-01   -4.4157076E-01
 2.5300    5.3926863E-03    4.3376656E-01   -4.3376656E-01
 2.5400    5.2556509E-03    4.2609242E-01   -4.2609242E-01
 2.5500    5.1221712E-03    4.1854708E-01   -4.1854708E-01
 2.5600    4.9921741E-03    4.1113033E-01   -4.1113033E-01
 2.5700    4.8655860E-03    4.0384179E-01   -4.0384179E-01
 2.5800    4.7423186E-03    3.9667972E-01   -3.9667972E-01
 2.5900    4.6222666E-03    3.8964076E-01   -3.8964076E-01
 2.6000    4.5053186E-03    3.8272080E-01   -3.8272080E-01
 2.6100    4.3913725E-03    3.7591630E-01   -3.7591630E-01
 2.6200    4.2803449E-03    3.6922509E-01   -3.6922509E-01
 2.6300    4.1721632E-03    3.6264580E-01   -3.6264580E-01
 2.6400    4.0667512E-03    3.5617655E-01   -3.5617655E-01
 2.6500    3.9640203E-03    3.4981424E-01   -3.4981424E-01
 2.6600    3.8638797E-03    3.4355536E-01   -3.4355536E-01
 2.6700    3.7662578E-03    3.3739794E-01   -3.3739794E-01
 2.6800    3.6711147E-03    3.3134270E-01   -3.3134270E-01
 2.6900    3.5784332E-03    3.2539235E-01   -3.2539235E-01
 2.7000    3.4881934E-03    3.1954936E-01   -3.1954936E-01
 2.7100    3.4003500E-03    3.1381382E-01   -3.1381382E-01
 2.7200    3.3148271E-03    3.0818291E-01   -3.0818291E-01
 2.7300    3.2315328E-03    3.0265212E-01   -3.0265212E-01
 2.7400    3.1503797E-03    2.9721716E-01   -2.9721716E-01
 2.7500    3.0712972E-03    2.9187514E-01   -2.9187514E-01
 2.7600    2.9942293E-03    2.8662435E-01   -2.8662435E-01
 2.7700    2.9191230E-03    2.8146332E-01   -2.8146332E-01
 2.7800    2.8459222E-03    2.7639010E-01   -2.7639010E-01
 2.7900    2.7745690E-03    2.7140247E-01   -2.7140247E-01
 2.8000    2.7050117E-03    2.6649869E-01   -2.6649869E-01
 2.8100    2.6372118E-03    2.6167818E-01   -2.6167818E-01
 2.8200    2.5711446E-03    2.5694170E-01   -2.5694170E-01
 2.8300    2.5067947E-03    2.5229085E-01   -2.5229085E-01
 2.8400    2.4441459E-03    2.4772719E-01   -2.4772719E-01
 2.8500    2.3831688E-03    2.4325086E-01   -2.4325086E-01
 2.8600    2.3238095E-03    2.3885946E-01   -2.3885946E-01
 2.8700    2.2659880E-03    2.3454774E-01   -2.3454774E-01
 2.8800    2.2096118E-03    2.3030895E-01   -2.3030895E-01
 2.8900    2.1546016E-03    2.2613747E-01   -2.2613747E-01
 2.9000    2.1009148E-03    2.2203135E-01   -2.2203135E-01
 2.9100    2.0485501E-03    2.1799294E-01   -2.1799294E-01
 2.9200    1.9975274E-03    2.1402688E-01   -2.1402688E-01
 2.9300    1.9478552E-03    2.1013664E-01   -2.1013664E-01
 2.9400    1.8995072E-03    2.0632197E-01   -2.0632197E-01
 2.9500    1.8524228E-03    2.0257880E-01   -2.0257880E-01
 2.9600    1.8065301E-03    1.9890170E-01   -1.9890170E-01
 2.9700    1.7617743E-03    1.9528686E-01   -1.9528686E-01
 2.9800    1.7181292E-03    1.9173360E-01   -1.9173360E-01
 2.9900    1.6755874E-03    1.8824322E-01   -1.8824322E-01
 3.0000    1.6341391E-03    1.8481678E-01   -1.8481678E-01
 3.0100    1.5937600E-03    1.8145368E-01   -1.8145368E-01
 3.0200    1.5544149E-03    1.7815200E-01   -1.7815200E-01
 3.0300    1.5160703E-03    1.7490992E-01   -1.7490992E-01
 3.0400    1.4787008E-03    1.7172650E-01   -1.7172650E-01
 3.0500    1.4422855E-03    1.6860124E-01   -1.6860124E-01
 3.0600    1.4067985E-03    1.6553301E-01   -1.6553301E-01
 3.0700    1.3722050E-03    1.6251955E-01   -1.6251955E-01
 3.0800    1.3384673E-03    1.5955817E-01   -1.5955817E-01
 3.0900    1.3055548E-03    1.5664695E-01   -1.5664695E-01
 3.1000    1.2734514E-03    1.5378558E-01   -1.5378558E-01
 3.1100    1.2421515E-03    1.5097506E-01   -1.5097506E-01
 3.1200    1.2116497E-03    1.4821635E-01   -1.4821635E-01
 3.1300    1.1819292E-03    1.4550904E-01   -1.4550904E-01
 3.1400    1.1529594E-03    1.4285096E-01   -1.4285096E-01
 3.1500    1.1247023E-03    1.4023892E-01   -1.4023892E-01
 3.1600    1.0971234E-03    1.3767006E-01   -1.3767006E-01
 3.1700    1.0701995E-03    1.3514286E-01   -1.3514286E-01
 3.1800    1.0439202E-03    1.3265738E-01   -1.3265738E-01
 3.1900    1.0182837E-03    1.3021471E-01   -1.3021471E-01
 3.2000    9.9328839E-04    1.2781599E-01   -1.2781599E-01
 3.2100    9.6892590E-04    1.2546150E-01   -1.2546150E-01
 3.2200    9.4517855E-04    1.2315030E-01   -1.2315030E-01
 3.2300    9.2202206E-04    1.2088049E-01   -1.2088049E-01
 3.2400    8.9943195E-04    1.1865012E-01   -1.1865012E-01
 3.2500    8.7738966E-04    1.1645794E-01   -1.1645794E-01
 3.2600    8.5588548E-04    1.1430381E-01   -1.1430381E-01
 3.2700    8.3491638E-04    1.1218850E-01   -1.1218850E-01
 3.2800    8.1447906E-04    1.1011272E-01   -1.1011272E-01
 3.2900    7.9456167E-04    1.0807600E-01   -1.0807600E-01
 3.3000    7.7514043E-04    1.0607624E-01   -1.0607624E-01
 3.3100    7.5618518E-04    1.0411038E-01   -1.0411038E-01
 3.3200    7.3767140E-04    1.0217602E-01   -1.0217602E-01
 3.3300    7.1958968E-04    1.0027283E-01   -1.0027283E-01
 3.3400    7.0194531E-04    9.8402487E-02   -9.8402487E-02
 3.3500    6.8474813E-04    9.6567354E-02   -9.6567354E-02
 3.3600    6.6800075E-04    9.4768797E-02   -9.4768797E-02
