# total charge: 3.000000 
# r(A)     rho (e/A^3)     4*pi*r^2*rho(e/A)  dip  
 0.0000    1.7861150E-01    0.0000000E+00    2.3936537E+01
 0.0100    1.7998333E-01    2.2617372E-04    2.3816927E+01
 0.0200    1.8171456E-01    9.1339701E-04    2.3461648E+01
 0.0300    1.8387532E-01    2.0795809E-03    2.2881189E+01
 0.0400    1.8653814E-01    3.7505718E-03    2.2092458E+01
 0.0500    1.8978014E-01    5.9621190E-03    2.1117957E+01
 0.0600    1.9368438E-01    8.7620751E-03    1.9984714E+01
 0.0700    1.9833232E-01    1.2212356E-02    1.8723024E+01
 0.0800    2.0378555E-01    1.6389407E-02    1.7365104E+01
 0.0900    2.1006723E-01    2.1382240E-02    1.5943733E+01
 0.1000    2.1715655E-01    2.7288697E-02    1.4490955E+01
 0.1100    2.2499926E-01    3.4211831E-02    1.3036919E+01
 0.1200    2.3352565E-01    4.2257806E-02    1.1608905E+01
 0.1300    2.4266537E-01    5.1535248E-02    1.0230580E+01
 0.1400    2.5235423E-01    6.2155065E-02    8.9214929E+00
 0.1500    2.6253424E-01    7.4229807E-02    7.6968259E+00
 0.1600    2.7315048E-01    8.7872259E-02    6.5673778E+00
 0.1700    2.8414810E-01    1.0319353E-01    5.5397511E+00
 0.1800    2.9547113E-01    1.2030119E-01    4.6167083E+00
 0.1900    3.0706311E-01    1.3929795E-01    3.7976509E+00
 0.2000    3.1886862E-01    1.6028085E-01    3.0791771E+00
 0.2100    3.3083398E-01    1.8334056E-01    2.4556752E+00
 0.2200    3.4290671E-01    2.0856009E-01    1.9199155E+00
 0.2300    3.5503448E-01    2.3601308E-01    1.4636092E+00
 0.2400    3.6716444E-01    2.6576205E-01    1.0779098E+00
 0.2500    3.7924360E-01    2.9785723E-01    7.5384080E-01
 0.2600    3.9121967E-01    3.3233589E-01    4.8264227E-01
 0.2700    4.0304169E-01    3.6922182E-01    2.5603426E-01
 0.2800    4.1466012E-01    4.0852458E-01    6.6402516E-02
 0.2900    4.2602654E-01    4.5023839E-01   -9.3086442E-02
 0.3000    4.3709381E-01    4.9434146E-01   -2.2843055E-01
 0.3100    4.4781662E-01    5.4079599E-01   -3.4478685E-01
 0.3200    4.5815241E-01    5.8954885E-01   -4.4650356E-01
 0.3300    4.6806185E-01    6.4053223E-01   -5.3717810E-01
 0.3400    4.7750881E-01    6.9366389E-01   -6.1973074E-01
 0.3500    4.8645998E-01    7.4884697E-01   -6.9648600E-01
 0.3600    4.9488488E-01    8.0597033E-01   -7.6925621E-01
 0.3700    5.0275610E-01    8.6490949E-01   -8.3942267E-01
 0.3800    5.1004958E-01    9.2552776E-01   -9.0801095E-01
 0.3900    5.1674439E-01    9.8767680E-01   -9.7575747E-01
 0.4000    5.2282223E-01    1.0511965E+00   -1.0431667E+00
 0.4100    5.2826710E-01    1.1159151E+00   -1.1105594E+00
 0.4200    5.3306551E-01    1.1816505E+00   -1.1781139E+00
 0.4300    5.3720719E-01    1.2482127E+00   -1.2459006E+00
 0.4400    5.4068546E-01    1.3154063E+00   -1.3139097E+00
 0.4500    5.4349739E-01    1.3830324E+00   -1.3820734E+00
 0.4600    5.4564338E-01    1.4508898E+00   -1.4502813E+00
 0.4700    5.4712674E-01    1.5187753E+00   -1.5183931E+00
 0.4800    5.4795327E-01    1.5864846E+00   -1.5862469E+00
 0.4900    5.4813104E-01    1.6538131E+00   -1.6536667E+00
 0.5000    5.4767026E-01    1.7205569E+00   -1.7204677E+00
 0.5100    5.4658336E-01    1.7865148E+00   -1.7864610E+00
 0.5200    5.4488513E-01    1.8514906E+00   -1.8514584E+00
 0.5300    5.4259277E-01    1.9152947E+00   -1.9152757E+00
 0.5400    5.3972559E-01    1.9777455E+00   -1.9777343E+00
 0.5500    5.3630459E-01    2.0386692E+00   -2.0386627E+00
 0.5600    5.3235207E-01    2.0979004E+00   -2.0978967E+00
 0.5700    5.2789158E-01    2.1552830E+00   -2.1552809E+00
 0.5800    5.2294787E-01    2.2106717E+00   -2.2106705E+00
 0.5900    5.1754692E-01    2.2639333E+00   -2.2639326E+00
 0.6000    5.1171585E-01    2.3149480E+00   -2.3149476E+00
 0.6100    5.0548258E-01    2.3636095E+00   -2.3636093E+00
 0.6200    4.9887568E-01    2.4098254E+00   -2.4098253E+00
 0.6300    4.9192415E-01    2.4535172E+00   -2.4535172E+00
 0.6400    4.8465734E-01    2.4946212E+00   -2.4946212E+00
 0.6500    4.7710490E-01    2.5330890E+00   -2.5330890E+00
 0.6600    4.6929663E-01    2.5688880E+00   -2.5688880E+00
 0.6700    4.6126235E-01    2.6020011E+00   -2.6020011E+00
 0.6800    4.5303173E-01    2.6324268E+00   -2.6324268E+00
 0.6900    4.4463414E-01    2.6601790E+00   -2.6601790E+00
 0.7000    4.3609856E-01    2.6852863E+00   -2.6852863E+00
 0.7100    4.2745339E-01    2.7077921E+00   -2.7077921E+00
 0.7200    4.1872634E-01    2.7277536E+00   -2.7277536E+00
 0.7300    4.0994425E-01    2.7452404E+00   -2.7452404E+00
 0.7400    4.0113269E-01    2.7603322E+00   -2.7603322E+00
 0.7500    3.9231560E-01    2.7731156E+00   -2.7731156E+00
 0.7600    3.8351482E-01    2.7836793E+00   -2.7836793E+00
 0.7700    3.7474960E-01    2.7921098E+00   -2.7921098E+00
 0.7800    3.6603639E-01    2.7984873E+00   -2.7984873E+00
 0.7900    3.5738886E-01    2.8028836E+00   -2.8028836E+00
 0.8000    3.4881821E-01    2.8053625E+00   -2.8053625E+00
 0.8100    3.4033359E-01    2.8059810E+00   -2.8059810E+00
 0.8200    3.3194268E-01    2.8047920E+00   -2.8047920E+00
 0.8300    3.2365204E-01    2.8018469E+00   -2.8018469E+00
 0.8400    3.1546752E-01    2.7971972E+00   -2.7971972E+00
 0.8500    3.0739441E-01    2.7908962E+00   -2.7908962E+00
 0.8600    2.9943752E-01    2.7829986E+00   -2.7829986E+00
 0.8700    2.9160119E-01    2.7735607E+00   -2.7735607E+00
 0.8800    2.8388933E-01    2.7626399E+00   -2.7626399E+00
 0.8900    2.7630538E-01    2.7502946E+00   -2.7502946E+00
 0.9000    2.6885242E-01    2.7365843E+00   -2.7365843E+00
 0.9100    2.6153319E-01    2.7215697E+00   -2.7215697E+00
 0.9200    2.5435012E-01    2.7053127E+00   -2.7053127E+00
 0.9300    2.4730529E-01    2.6878756E+00   -2.6878756E+00
 0.9400    2.4040040E-01    2.6693208E+00   -2.6693208E+00
 0.9500    2.3363680E-01    2.6497099E+00   -2.6497099E+00
 0.9600    2.2701547E-01    2.6291040E+00   -2.6291040E+00
 0.9700    2.2053704E-01    2.6075634E+00   -2.6075634E+00
 0.9800    2.1420189E-01    2.5851474E+00   -2.5851474E+00
 0.9900    2.0801011E-01    2.5619149E+00   -2.5619149E+00
 1.0000    2.0196155E-01    2.5379237E+00   -2.5379237E+00
 1.0100    1.9605580E-01    2.5132305E+00   -2.5132305E+00
 1.0200    1.9029222E-01    2.4878904E+00   -2.4878904E+00
 1.0300    1.8466990E-01    2.4619568E+00   -2.4619568E+00
 1.0400    1.7918768E-01    2.4354807E+00   -2.4354807E+00
 1.0500    1.7384419E-01    2.4085110E+00   -2.4085110E+00
 1.0600    1.6863784E-01    2.3810945E+00   -2.3810945E+00
 1.0700    1.6356691E-01    2.3532761E+00   -2.3532761E+00
 1.0800    1.5862958E-01    2.3250995E+00   -2.3250995E+00
 1.0900    1.5382390E-01    2.2966069E+00   -2.2966069E+00
 1.1000    1.4914783E-01    2.2678387E+00   -2.2678387E+00
 1.1100    1.4459918E-01    2.2388327E+00   -2.2388327E+00
 1.1200    1.4017564E-01    2.2096245E+00   -2.2096245E+00
 1.1300    1.3587483E-01    2.1802474E+00   -2.1802474E+00
 1.1400    1.3169430E-01    2.1507333E+00   -2.1507333E+00
 1.1500    1.2763160E-01    2.1211128E+00   -2.1211128E+00
 1.1600    1.2368425E-01    2.0914151E+00   -2.0914151E+00
 1.1700    1.1984975E-01    2.0616680E+00   -2.0616680E+00
 1.1800    1.1612558E-01    2.0318975E+00   -2.0318975E+00
 1.1900    1.1250920E-01    2.0021279E+00   -2.0021279E+00
 1.2000    1.0899803E-01    1.9723819E+00   -1.9723819E+00
 1.2100    1.0558953E-01    1.9426809E+00   -1.9426809E+00
 1.2200    1.0228118E-01    1.9130452E+00   -1.9130452E+00
 1.2300    9.9070470E-02    1.8834943E+00   -1.8834943E+00
 1.2400    9.5954961E-02    1.8540467E+00   -1.8540467E+00
 1.2500    9.2932208E-02    1.8247196E+00   -1.8247196E+00
 1.2600    8.9999788E-02    1.7955291E+00   -1.7955291E+00
 1.2700    8.7155311E-02    1.7664899E+00   -1.7664899E+00
 1.2800    8.4396443E-02    1.7376166E+00   -1.7376166E+00
 1.2900    8.1720914E-02    1.7089230E+00   -1.7089230E+00
 1.3000    7.9126513E-02    1.6804229E+00   -1.6804229E+00
 1.3100    7.6611079E-02    1.6521293E+00   -1.6521293E+00
 1.3200    7.4172493E-02    1.6240545E+00   -1.6240545E+00
 1.3300    7.1808669E-02    1.5962100E+00   -1.5962100E+00
 1.3400    6.9517547E-02    1.5686061E+00   -1.5686061E+00
 1.3500    6.7297093E-02    1.5412522E+00   -1.5412522E+00
 1.3600    6.5145314E-02    1.5141568E+00   -1.5141568E+00
 1.3700    6.3060275E-02    1.4873283E+00   -1.4873283E+00
 1.3800    6.1040119E-02    1.4607753E+00   -1.4607753E+00
 1.3900    5.9083056E-02    1.4345062E+00   -1.4345062E+00
 1.4000    5.7187340E-02    1.4085291E+00   -1.4085291E+00
 1.4100    5.5351242E-02    1.3828512E+00   -1.3828512E+00
 1.4200    5.3573049E-02    1.3574784E+00   -1.3574784E+00
 1.4300    5.1851074E-02    1.3324156E+00   -1.3324156E+00
 1.4400    5.0183671E-02    1.3076673E+00   -1.3076673E+00
 1.4500    4.8569245E-02    1.2832380E+00   -1.2832380E+00
 1.4600    4.7006246E-02    1.2591317E+00   -1.2591317E+00
 1.4700    4.5493167E-02    1.2353519E+00   -1.2353519E+00
 1.4800    4.4028528E-02    1.2119019E+00   -1.2119019E+00
 1.4900    4.2610876E-02    1.1887838E+00   -1.1887838E+00
 1.5000    4.1238784E-02    1.1659991E+00   -1.1659991E+00
 1.5100    3.9910859E-02    1.1435491E+00   -1.1435491E+00
 1.5200    3.8625748E-02    1.1214346E+00   -1.1214346E+00
 1.5300    3.7382138E-02    1.0996560E+00   -1.0996560E+00
 1.5400    3.6178754E-02    1.0782139E+00   -1.0782139E+00
 1.5500    3.5014350E-02    1.0571079E+00   -1.0571079E+00
 1.5600    3.3887704E-02    1.0363375E+00   -1.0363375E+00
 1.5700    3.2797620E-02    1.0159013E+00   -1.0159013E+00
 1.5800    3.1742927E-02    9.9579744E-01   -9.9579744E-01
 1.5900    3.0722482E-02    9.7602382E-01   -9.7602382E-01
 1.6000    2.9735180E-02    9.5657803E-01   -9.5657803E-01
 1.6100    2.8779949E-02    9.3745761E-01   -9.3745761E-01
 1.6200    2.7855756E-02    9.1866007E-01   -9.1866007E-01
 1.6300    2.6961598E-02    9.0018278E-01   -9.0018278E-01
 1.6400    2.6096501E-02    8.8202286E-01   -8.8202286E-01
 1.6500    2.5259518E-02    8.6417721E-01   -8.6417721E-01
 1.6600    2.4449729E-02    8.4664254E-01   -8.4664254E-01
 1.6700    2.3666246E-02    8.2941555E-01   -8.2941555E-01
 1.6800    2.2908210E-02    8.1249290E-01   -8.1249290E-01
 1.6900    2.2174791E-02    7.9587122E-01   -7.9587122E-01
 1.7000    2.1465184E-02    7.7954702E-01   -7.7954702E-01
 1.7100    2.0778608E-02    7.6351669E-01   -7.6351669E-01
 1.7200    2.0114310E-02    7.4777663E-01   -7.4777663E-01
 1.7300    1.9471559E-02    7.3232321E-01   -7.3232321E-01
 1.7400    1.8849653E-02    7.1715285E-01   -7.1715285E-01
 1.7500    1.8247911E-02    7.0226193E-01   -7.0226193E-01
 1.7600    1.7665675E-02    6.8764681E-01   -6.8764681E-01
 1.7700    1.7102309E-02    6.7330391E-01   -6.7330391E-01
 1.7800    1.6557202E-02    6.5922978E-01   -6.5922978E-01
 1.7900    1.6029768E-02    6.4542110E-01   -6.4542110E-01
 1.8000    1.5519438E-02    6.3187457E-01   -6.3187457E-01
 1.8100    1.5025664E-02    6.1858687E-01   -6.1858687E-01
 1.8200    1.4547912E-02    6.0555459E-01   -6.0555459E-01
 1.8300    1.4085664E-02    5.9277432E-01   -5.9277432E-01
 1.8400    1.3638422E-02    5.8024264E-01   -5.8024264E-01
 1.8500    1.3205704E-02    5.6795626E-01   -5.6795626E-01
 1.8600    1.2787046E-02    5.5591191E-01   -5.5591191E-01
 1.8700    1.2381995E-02    5.4410624E-01   -5.4410624E-01
 1.8800    1.1990112E-02    5.3253580E-01   -5.3253580E-01
 1.8900    1.1610970E-02    5.2119708E-01   -5.2119708E-01
 1.9000    1.1244156E-02    5.1008662E-01   -5.1008662E-01
 1.9100    1.0889273E-02    4.9920106E-01   -4.9920106E-01
 1.9200    1.0545935E-02    4.8853697E-01   -4.8853697E-01
 1.9300    1.0213766E-02    4.7809081E-01   -4.7809081E-01
 1.9400    9.8923980E-03    4.6785891E-01   -4.6785891E-01
 1.9500    9.5814744E-03    4.5783757E-01   -4.5783757E-01
 1.9600    9.2806525E-03    4.4802321E-01   -4.4802321E-01
 1.9700    8.9896016E-03    4.3841233E-01   -4.3841233E-01
 1.9800    8.7080013E-03    4.2900142E-01   -4.2900142E-01
 1.9900    8.4355372E-03    4.1978678E-01   -4.1978678E-01
 2.0000    8.1719010E-03    4.1076455E-01   -4.1076455E-01
 2.0100    7.9167929E-03    4.0193078E-01   -4.0193078E-01
 2.0200    7.6699254E-03    3.9328170E-01   -3.9328170E-01
 2.0300    7.4310254E-03    3.8481384E-01   -3.8481384E-01
 2.0400    7.1998334E-03    3.7652399E-01   -3.7652399E-01
 2.0500    6.9761000E-03    3.6840904E-01   -3.6840904E-01
 2.0600    6.7595819E-03    3.6046586E-01   -3.6046586E-01
 2.0700    6.5500397E-03    3.5269109E-01   -3.5269109E-01
 2.0800    6.3472357E-03    3.4508109E-01   -3.4508109E-01
 2.0900    6.1509356E-03    3.3763201E-01   -3.3763201E-01
 2.1000    5.9609110E-03    3.3033995E-01   -3.3033995E-01
 2.1100    5.7769430E-03    3.2320112E-01   -3.2320112E-01
 2.1200    5.5988244E-03    3.1621206E-01   -3.1621206E-01
 2.1300    5.4263598E-03    3.0936962E-01   -3.0936962E-01
 2.1400    5.2593643E-03    3.0267090E-01   -3.0267090E-01
 2.1500    5.0976616E-03    2.9611321E-01   -2.9611321E-01
 2.1600    4.9410826E-03    2.8969398E-01   -2.8969398E-01
 2.1700    4.7894646E-03    2.8341074E-01   -2.8341074E-01
 2.1800    4.6426499E-03    2.7726100E-01   -2.7726100E-01
 2.1900    4.5004839E-03    2.7124223E-01   -2.7124223E-01
 2.2000    4.3628148E-03    2.6535178E-01   -2.6535178E-01
 2.2100    4.2294936E-03    2.5958691E-01   -2.5958691E-01
 2.2200    4.1003755E-03    2.5394487E-01   -2.5394487E-01
 2.2300    3.9753212E-03    2.4842301E-01   -2.4842301E-01
 2.2400    3.8541974E-03    2.4301879E-01   -2.4301879E-01
 2.2500    3.7368773E-03    2.3772986E-01   -2.3772986E-01
 2.2600    3.6232396E-03    2.3255399E-01   -2.3255399E-01
 2.2700    3.5131684E-03    2.2748907E-01   -2.2748907E-01
 2.2800    3.4065523E-03    2.2253310E-01   -2.2253310E-01
 2.2900    3.3032839E-03    2.1768411E-01   -2.1768411E-01
 2.3000    3.2032590E-03    2.1294017E-01   -2.1294017E-01
 2.3100    3.1063765E-03    2.0829935E-01   -2.0829935E-01
 2.3200    3.0125382E-03    2.0375975E-01   -2.0375975E-01
 2.3300    2.9216483E-03    1.9931943E-01   -1.9931943E-01
 2.3400    2.8336135E-03    1.9497647E-01   -1.9497647E-01
 2.3500    2.7483428E-03    1.9072889E-01   -1.9072889E-01
 2.3600    2.6657460E-03    1.8657465E-01   -1.8657465E-01
 2.3700    2.5857348E-03    1.8251163E-01   -1.8251163E-01
 2.3800    2.5082229E-03    1.7853769E-01   -1.7853769E-01
 2.3900    2.4331278E-03    1.7465080E-01   -1.7465080E-01
 2.4000    2.3603722E-03    1.7084915E-01   -1.7084915E-01
 2.4100    2.2898832E-03    1.6713110E-01   -1.6713110E-01
 2.4200    2.2215908E-03    1.6349507E-01   -1.6349507E-01
 2.4300    2.1554258E-03    1.5993941E-01   -1.5993941E-01
 2.4400    2.0913190E-03    1.5646233E-01   -1.5646233E-01
 2.4500    2.0292021E-03    1.5306198E-01   -1.5306198E-01
 2.4600    1.9690087E-03    1.4973651E-01   -1.4973651E-01
 2.4700    1.9106751E-03    1.4648414E-01   -1.4648414E-01
 2.4800    1.8541401E-03    1.4330316E-01   -1.4330316E-01
 2.4900    1.7993445E-03    1.4019189E-01   -1.4019189E-01
 2.5000    1.7462315E-03    1.3714870E-01   -1.3714870E-01
 2.5100    1.6947466E-03    1.3417206E-01   -1.3417206E-01
 2.5200    1.6448382E-03    1.3126052E-01   -1.3126052E-01
 2.5300    1.5964567E-03    1.2841272E-01   -1.2841272E-01
 2.5400    1.5495537E-03    1.2562727E-01   -1.2562727E-01
 2.5500    1.5040812E-03    1.2290273E-01   -1.2290273E-01
 2.5600    1.4599923E-03    1.2023761E-01   -1.2023761E-01
 2.5700    1.4172410E-03    1.1763046E-01   -1.1763046E-01
 2.5800    1.3757835E-03    1.1507987E-01   -1.1507987E-01
 2.5900    1.3355782E-03    1.1258453E-01   -1.1258453E-01
 2.6000    1.2965858E-03    1.1014323E-01   -1.1014323E-01
 2.6100    1.2587683E-03    1.0775482E-01   -1.0775482E-01
 2.6200    1.2220894E-03    1.0541816E-01   -1.0541816E-01
 2.6300    1.1865137E-03    1.0313216E-01   -1.0313216E-01
 2.6400    1.1520079E-03    1.0089582E-01   -1.0089582E-01
 2.6500    1.1185402E-03    9.8708193E-02   -9.8708193E-02
 2.6600    1.0860797E-03    9.6568357E-02   -9.6568357E-02
 2.6700    1.0545953E-03    9.4475290E-02   -9.4475290E-02
 2.6800    1.0240551E-03    9.2427837E-02   -9.2427837E-02
 2.6900    9.9442729E-04    9.0424779E-02   -9.0424779E-02
 2.7000    9.6568172E-04    8.8464984E-02   -8.8464984E-02
 2.7100    9.3779120E-04    8.6547514E-02   -8.6547514E-02
 2.7200    9.1073111E-04    8.4671616E-02   -8.4671616E-02
 2.7300    8.8447804E-04    8.2836590E-02   -8.2836590E-02
 2.7400    8.5900840E-04    8.1041673E-02   -8.1041673E-02
 2.7500    8.3429819E-04    7.9286008E-02   -7.9286008E-02
 2.7600    8.1032397E-04    7.7568735E-02   -7.7568735E-02
 2.7700    7.8706377E-04    7.5889086E-02   -7.5889086E-02
 2.7800    7.6449713E-04    7.4246386E-02   -7.4246386E-02
 2.7900    7.4260416E-04    7.2639969E-02   -7.2639969E-02
 2.8000    7.2136467E-04    7.1069097E-02   -7.1069097E-02
 2.8100    7.0075805E-04    6.9532941E-02   -6.9532941E-02
 2.8200    6.8076377E-04    6.8030633E-02   -6.8030633E-02
 2.8300    6.6136202E-04    6.6561329E-02   -6.6561329E-02
 2.8400    6.4253411E-04    6.5124249E-02   -6.5124249E-02
 2.8500    6.2426266E-04    6.3718705E-02   -6.3718705E-02
 2.8600    6.0653172E-04    6.2344113E-02   -6.2344113E-02
 2.8700    5.8932670E-04    6.0999991E-02   -6.0999991E-02
 2.8800    5.7263375E-04    5.9685905E-02   -5.9685905E-02
 2.8900    5.5643868E-04    5.8401346E-02   -5.8401346E-02
 2.9000    5.4072579E-04    5.7145619E-02   -5.7145619E-02
 2.9100    5.2547779E-04    5.5917817E-02   -5.5917817E-02
 2.9200    5.1067702E-04    5.4716950E-02   -5.4716950E-02
 2.9300    4.9630740E-04    5.3542156E-02   -5.3542156E-02
 2.9400    4.8235573E-04    5.2392843E-02   -5.2392843E-02
 2.9500    4.6881123E-04    5.1268652E-02   -5.1268652E-02
 2.9600    4.5566368E-04    5.0169261E-02   -5.0169261E-02
 2.9700    4.4290154E-04    4.9094173E-02   -4.9094173E-02
 2.9800    4.3051130E-04    4.8042649E-02   -4.8042649E-02
 2.9900    4.1847875E-04    4.7013831E-02   -4.7013831E-02
 3.0000    4.0679069E-04    4.6006943E-02   -4.6006943E-02
 3.0100    3.9543606E-04    4.5021413E-02   -4.5021413E-02
 3.0200    3.8440547E-04    4.4056836E-02   -4.4056836E-02
 3.0300    3.7369010E-04    4.3112848E-02   -4.3112848E-02
 3.0400    3.6328090E-04    4.2189035E-02   -4.2189035E-02
 3.0500    3.5316868E-04    4.1284946E-02   -4.1284946E-02
 3.0600    3.4334473E-04    4.0400161E-02   -4.0400161E-02
 3.0700    3.3380114E-04    3.9534334E-02   -3.9534334E-02
 3.0800    3.2453048E-04    3.8687155E-02   -3.8687155E-02
 3.0900    3.1552509E-04    3.7858267E-02   -3.7858267E-02
 3.1000    3.0677656E-04    3.7047203E-02   -3.7047203E-02
 3.1100    2.9827601E-04    3.6253418E-02   -3.6253418E-02
 3.1200    2.9001499E-04    3.5476397E-02   -3.5476397E-02
 3.1300    2.8198643E-04    3.4715766E-02   -3.4715766E-02
 3.1400    2.7418486E-04    3.3971336E-02   -3.3971336E-02
 3.1500    2.6660579E-04    3.3243026E-02   -3.3243026E-02
 3.1600    2.5924462E-04    3.2530728E-02   -3.2530728E-02
 3.1700    2.5209575E-04    3.1834199E-02   -3.1834199E-02
 3.1800    2.4515245E-04    3.1153034E-02   -3.1153034E-02
 3.1900    2.3840731E-04    3.0486727E-02   -3.0486727E-02
 3.2000    2.3185316E-04    2.9834780E-02   -2.9834780E-02
 3.2100    2.2548376E-04    2.9196796E-02   -2.9196796E-02
 3.2200    2.1929413E-04    2.8572524E-02   -2.8572524E-02
 3.2300    2.1328012E-04    2.7961810E-02   -2.7961810E-02
 3.2400    2.0743770E-04    2.7364503E-02   -2.7364503E-02
 3.2500    2.0176225E-04    2.6780366E-02   -2.6780366E-02
 3.2600    1.9624835E-04    2.6209038E-02   -2.6209038E-02
 3.2700    1.9089011E-04    2.5650084E-02   -2.5650084E-02
 3.2800    1.8568211E-04    2.5103114E-02   -2.5103114E-02
 3.2900    1.8062023E-04    2.4567901E-02   -2.4567901E-02
 3.3000    1.7570186E-04    2.4044408E-02   -2.4044408E-02
 3.3100    1.7092502E-04    2.3532685E-02   -2.3532685E-02
 3.3200    1.6628700E-04    2.3032673E-02   -2.3032673E-02
 3.3300    1.6178337E-04    2.2544064E-02   -2.2544064E-02
 3.3400    1.5740817E-04    2.2066328E-02   -2.2066328E-02
 3.3500    1.5315518E-04    2.1598876E-02   -2.1598876E-02
 3.3600    1.4901923E-04    2.1141253E-02   -2.1141253E-02
