# total charge: 14.000000 
# r(A)     rho (e/A^3)     4*pi*r^2*rho(e/A)  dip  
 0.0000    4.0652372E+00    0.0000000E+00    1.1170384E+02
 0.0100    4.0686316E+00    5.1127932E-03    1.1114160E+02
 0.0200    4.0729098E+00    2.0472678E-02    1.0947148E+02
 0.0300    4.0782377E+00    4.6123781E-02    1.0674246E+02
 0.0400    4.0847801E+00    8.2129376E-02    1.0303351E+02
 0.0500    4.0927038E+00    1.2857608E-01    9.8449715E+01
 0.0600    4.1021790E+00    1.8557821E-01    9.3117311E+01
 0.0700    4.1133610E+00    2.5328109E-01    8.7177820E+01
 0.0800    4.1263460E+00    3.3186044E-01    8.0781774E+01
 0.0900    4.1411271E+00    4.2151540E-01    7.4082355E+01
 0.1000    4.1575838E+00    5.2245739E-01    6.7229345E+01
 0.1100    4.1755116E+00    6.3489942E-01    6.0363710E+01
 0.1200    4.1946702E+00    7.5904964E-01    5.3613046E+01
 0.1300    4.2148205E+00    8.9510844E-01    4.7088097E+01
 0.1400    4.2357376E+00    1.0432658E+00    4.0880425E+01
 0.1500    4.2572044E+00    1.2036962E+00    3.5061231E+01
 0.1600    4.2789981E+00    1.3765498E+00    2.9681284E+01
 0.1700    4.3008805E+00    1.5619427E+00    2.4771799E+01
 0.1800    4.3225973E+00    1.7599473E+00    2.0346097E+01
 0.1900    4.3438896E+00    1.9705880E+00    1.6401840E+01
 0.2000    4.3645138E+00    2.1938439E+00    1.2923627E+01
 0.2100    4.3842571E+00    2.4296542E+00    9.8857527E+00
 0.2200    4.4029327E+00    2.6779180E+00    7.2549680E+00
 0.2300    4.4203532E+00    2.9384784E+00    4.9930922E+00
 0.2400    4.4363087E+00    3.2111020E+00    3.0593664E+00
 0.2500    4.4505831E+00    3.4954798E+00    1.4124444E+00
 0.2600    4.4630084E+00    3.7912661E+00    1.1965288E-02
 0.2700    4.4735048E+00    4.0981260E+00   -1.1802642E+00
 0.2800    4.4820414E+00    4.4157227E+00   -2.1993962E+00
 0.2900    4.4885239E+00    4.7436147E+00   -3.0769056E+00
 0.3000    4.4926996E+00    5.0811235E+00   -3.8402060E+00
 0.3100    4.4941739E+00    5.4272912E+00   -4.5125819E+00
 0.3200    4.4925440E+00    5.7809893E+00   -5.1134446E+00
 0.3300    4.4875647E+00    6.1411325E+00   -5.6588132E+00
 0.3400    4.4792633E+00    6.5069024E+00   -6.1618810E+00
 0.3500    4.4679601E+00    6.8778902E+00   -6.6335391E+00
 0.3600    4.4541515E+00    7.2540384E+00   -7.0827058E+00
 0.3700    4.4382278E+00    7.6352437E+00   -7.5163053E+00
 0.3800    4.4201248E+00    8.0206874E+00   -7.9389423E+00
 0.3900    4.3991710E+00    8.4083335E+00   -8.3527099E+00
 0.4000    4.3743540E+00    8.7951605E+00   -8.7576881E+00
 0.4100    4.3449009E+00    9.1781987E+00   -9.1532054E+00
 0.4200    4.3107492E+00    9.5556713E+00   -9.5391672E+00
 0.4300    4.2725276E+00    9.9273115E+00   -9.9165217E+00
 0.4400    4.2310951E+00    1.0293617E+01   -1.0286633E+01
 0.4500    4.1870707E+00    1.0654797E+01   -1.0650322E+01
 0.4600    4.1407369E+00    1.1010402E+01   -1.1007562E+01
 0.4700    4.0922694E+00    1.1359777E+01   -1.1357993E+01
 0.4800    4.0419122E+00    1.1702515E+01   -1.1701406E+01
 0.4900    3.9898283E+00    1.2038053E+01   -1.2037370E+01
 0.5000    3.9357824E+00    1.2364625E+01   -1.2364209E+01
 0.5100    3.8790598E+00    1.2678757E+01   -1.2678506E+01
 0.5200    3.8188124E+00    1.2976121E+01   -1.2975971E+01
 0.5300    3.7546062E+00    1.3253360E+01   -1.3253271E+01
 0.5400    3.6867769E+00    1.3509654E+01   -1.3509602E+01
 0.5500    3.6164282E+00    1.3747227E+01   -1.3747196E+01
 0.5600    3.5451735E+00    1.3970869E+01   -1.3970852E+01
 0.5700    3.4747189E+00    1.4186630E+01   -1.4186620E+01
 0.5800    3.4062814E+00    1.4399466E+01   -1.4399460E+01
 0.5900    3.3399484E+00    1.4610115E+01   -1.4610112E+01
 0.6000    3.2743658E+00    1.4812882E+01   -1.4812880E+01
 0.6100    3.2071647E+00    1.4996531E+01   -1.4996530E+01
 0.6200    3.1361006E+00    1.5148974E+01   -1.5148974E+01
 0.6300    3.0603131E+00    1.5263595E+01   -1.5263594E+01
 0.6400    2.9809235E+00    1.5343366E+01   -1.5343366E+01
 0.6500    2.9005444E+00    1.5399836E+01   -1.5399836E+01
 0.6600    2.8219216E+00    1.5446948E+01   -1.5446948E+01
 0.6700    2.7464502E+00    1.5492846E+01   -1.5492846E+01
 0.6800    2.6734344E+00    1.5534498E+01   -1.5534498E+01
 0.6900    2.6005781E+00    1.5558866E+01   -1.5558866E+01
 0.7000    2.5254502E+00    1.5550514E+01   -1.5550514E+01
 0.7100    2.4470012E+00    1.5501037E+01   -1.5501037E+01
 0.7200    2.3661635E+00    1.5414151E+01   -1.5414151E+01
 0.7300    2.2852300E+00    1.5303314E+01   -1.5303314E+01
 0.7400    2.2065676E+00    1.5184152E+01   -1.5184152E+01
 0.7500    2.1315730E+00    1.5067202E+01   -1.5067202E+01
 0.7600    2.0604139E+00    1.4955176E+01   -1.4955176E+01
 0.7700    1.9924369E+00    1.4844852E+01   -1.4844852E+01
 0.7800    1.9267368E+00    1.4730635E+01   -1.4730635E+01
 0.7900    1.8624884E+00    1.4606885E+01   -1.4606885E+01
 0.8000    1.7990126E+00    1.4468518E+01   -1.4468518E+01
 0.8100    1.7357957E+00    1.4311281E+01   -1.4311281E+01
 0.8200    1.6726095E+00    1.4132927E+01   -1.4132927E+01
 0.8300    1.6096558E+00    1.3934746E+01   -1.3934746E+01
 0.8400    1.5475514E+00    1.3721877E+01   -1.3721877E+01
 0.8500    1.4870997E+00    1.3501679E+01   -1.3501679E+01
 0.8600    1.4289813E+00    1.3281078E+01   -1.3281078E+01
 0.8700    1.3735348E+00    1.3064357E+01   -1.3064357E+01
 0.8800    1.3206948E+00    1.2852206E+01   -1.2852206E+01
 0.8900    1.2700694E+00    1.2642045E+01   -1.2642045E+01
 0.9000    1.2211151E+00    1.2429437E+01   -1.2429437E+01
 0.9100    1.1733553E+00    1.2210184E+01   -1.2210184E+01
 0.9200    1.1265539E+00    1.1982226E+01   -1.1982226E+01
 0.9300    1.0807534E+00    1.1746335E+01   -1.1746335E+01
 0.9400    1.0361717E+00    1.1505283E+01   -1.1505283E+01
 0.9500    9.9304339E-01    1.1262254E+01   -1.1262254E+01
 0.9600    9.5151471E-01    1.1019651E+01   -1.1019651E+01
 0.9700    9.1164340E-01    1.0778996E+01   -1.0778996E+01
 0.9800    8.7346108E-01    1.0541577E+01   -1.0541577E+01
 0.9900    8.3700760E-01    1.0308837E+01   -1.0308837E+01
 1.0000    8.0228456E-01    1.0081805E+01   -1.0081805E+01
 1.0100    7.6917163E-01    9.8599762E+00   -9.8599762E+00
 1.0200    7.3740690E-01    9.6408961E+00   -9.6408961E+00
 1.0300    7.0668274E-01    9.4212559E+00   -9.4212559E+00
 1.0400    6.7679412E-01    9.1988412E+00   -9.1988412E+00
 1.0500    6.4771985E-01    8.9737852E+00   -8.9737852E+00
 1.0600    6.1957921E-01    8.7481945E+00   -8.7481945E+00
 1.0700    5.9251577E-01    8.5246652E+00   -8.5246652E+00
 1.0800    5.6660352E-01    8.3049427E+00   -8.3049427E+00
 1.0900    5.4182328E-01    8.0894785E+00   -8.0894785E+00
 1.1000    5.1809325E-01    7.8777676E+00   -7.8777676E+00
 1.1100    4.9531718E-01    7.6690084E+00   -7.6690084E+00
 1.1200    4.7342653E-01    7.4627432E+00   -7.4627432E+00
 1.1300    4.5240254E-01    7.2592505E+00   -7.2592505E+00
 1.1400    4.3226854E-01    7.0594879E+00   -7.0594879E+00
 1.1500    4.1305679E-01    6.8646012E+00   -6.8646012E+00
 1.1600    3.9477303E-01    6.6753389E+00   -6.6753389E+00
 1.1700    3.7738368E-01    6.4917935E+00   -6.4917935E+00
 1.1800    3.6082992E-01    6.3135906E+00   -6.3135906E+00
 1.1900    3.4505080E-01    6.1402610E+00   -6.1402610E+00
 1.2000    3.2999630E-01    5.9714724E+00   -5.9714724E+00
 1.2100    3.1562784E-01    5.8070546E+00   -5.8070546E+00
 1.2200    3.0191571E-01    5.6469669E+00   -5.6469669E+00
 1.2300    2.8883724E-01    5.4912760E+00   -5.4912760E+00
 1.2400    2.7636938E-01    5.3400234E+00   -5.3400234E+00
 1.2500    2.6447522E-01    5.1929587E+00   -5.1929587E+00
 1.2600    2.5309907E-01    5.0494200E+00   -5.0494200E+00
 1.2700    2.4218423E-01    4.9086624E+00   -4.9086624E+00
 1.2800    2.3170394E-01    4.7704926E+00   -4.7704926E+00
 1.2900    2.2167639E-01    4.6356297E+00   -4.6356297E+00
 1.3000    2.1214516E-01    4.5053620E+00   -4.5053620E+00
 1.3100    2.0313881E-01    4.3807186E+00   -4.3807186E+00
 1.3200    1.9464342E-01    4.2618430E+00   -4.2618430E+00
 1.3300    1.8660896E-01    4.1480659E+00   -4.1480659E+00
 1.3400    1.7897968E-01    4.0385287E+00   -4.0385287E+00
 1.3500    1.7171964E-01    3.9327593E+00   -3.9327593E+00
 1.3600    1.6481409E-01    3.8307341E+00   -3.8307341E+00
 1.3700    1.5825049E-01    3.7324677E+00   -3.7324677E+00
 1.3800    1.5199874E-01    3.6375420E+00   -3.6375420E+00
 1.3900    1.4600774E-01    3.5449926E+00   -3.5449926E+00
 1.4000    1.4022248E-01    3.4536918E+00   -3.4536918E+00
 1.4100    1.3461142E-01    3.3630242E+00   -3.3630242E+00
 1.4200    1.2918517E-01    3.2734010E+00   -3.2734010E+00
 1.4300    1.2399107E-01    3.1861948E+00   -3.1861948E+00
 1.4400    1.1908419E-01    3.1030514E+00   -3.1030514E+00
 1.4500    1.1449321E-01    3.0250016E+00   -3.0250016E+00
 1.4600    1.1020368E-01    2.9519681E+00   -2.9519681E+00
 1.4700    1.0616800E-01    2.8829570E+00   -2.8829570E+00
 1.4800    1.0233209E-01    2.8167294E+00   -2.8167294E+00
 1.4900    9.8658546E-02    2.7524353E+00   -2.7524353E+00
 1.5000    9.5132172E-02    2.6897988E+00   -2.6897988E+00
 1.5100    9.1748873E-02    2.6288421E+00   -2.6288421E+00
 1.5200    8.8502266E-02    2.5695166E+00   -2.5695166E+00
 1.5300    8.5381882E-02    2.5116461E+00   -2.5116461E+00
 1.5400    8.2383461E-02    2.4552252E+00   -2.4552252E+00
 1.5500    7.9518214E-02    2.4007110E+00   -2.4007110E+00
 1.5600    7.6808672E-02    2.3489259E+00   -2.3489259E+00
 1.5700    7.4273069E-02    2.3005969E+00   -2.3005969E+00
 1.5800    7.1911584E-02    2.2559158E+00   -2.2559158E+00
 1.5900    6.9703906E-02    2.2144263E+00   -2.2144263E+00
 1.6000    6.7615965E-02    2.1751994E+00   -2.1751994E+00
 1.6100    6.5609152E-02    2.1371059E+00   -2.1371059E+00
 1.6200    6.3649630E-02    2.0991128E+00   -2.0991128E+00
 1.6300    6.1717653E-02    2.0606037E+00   -2.0606037E+00
 1.6400    5.9813157E-02    2.0215956E+00   -2.0215956E+00
 1.6500    5.7952250E-02    1.9826591E+00   -1.9826591E+00
 1.6600    5.6155394E-02    1.9445429E+00   -1.9445429E+00
 1.6700    5.4435941E-02    1.9077811E+00   -1.9077811E+00
 1.6800    5.2797304E-02    1.8725791E+00   -1.8725791E+00
 1.6900    5.1238318E-02    1.8389848E+00   -1.8389848E+00
 1.7000    4.9758900E-02    1.8070846E+00   -1.8070846E+00
 1.7100    4.8359858E-02    1.7769987E+00   -1.7769987E+00
 1.7200    4.7038489E-02    1.7487194E+00   -1.7487194E+00
 1.7300    4.5785962E-02    1.7220050E+00   -1.7220050E+00
 1.7400    4.4589297E-02    1.6964419E+00   -1.6964419E+00
 1.7500    4.3435571E-02    1.6715967E+00   -1.6715967E+00
 1.7600    4.2315209E-02    1.6471445E+00   -1.6471445E+00
 1.7700    4.1223998E-02    1.6229551E+00   -1.6229551E+00
 1.7800    4.0164501E-02    1.5991612E+00   -1.5991612E+00
 1.7900    3.9145686E-02    1.5761583E+00   -1.5761583E+00
 1.8000    3.8178941E-02    1.5544571E+00   -1.5544571E+00
 1.8100    3.7271504E-02    1.5344189E+00   -1.5344189E+00
 1.8200    3.6421439E-02    1.5160368E+00   -1.5160368E+00
 1.8300    3.5617789E-02    1.4989219E+00   -1.4989219E+00
 1.8400    3.4845707E-02    1.4825003E+00   -1.4825003E+00
 1.8500    3.4092998E-02    1.4662854E+00   -1.4662854E+00
 1.8600    3.3354094E-02    1.4500564E+00   -1.4500564E+00
 1.8700    3.2629668E-02    1.4338566E+00   -1.4338566E+00
 1.8800    3.1923027E-02    1.4178479E+00   -1.4178479E+00
 1.8900    3.1236059E-02    1.4021346E+00   -1.4021346E+00
 1.9000    3.0567568E-02    1.3866854E+00   -1.3866854E+00
 1.9100    2.9915190E-02    1.3714133E+00   -1.3714133E+00
 1.9200    2.9279086E-02    1.3563440E+00   -1.3563440E+00
 1.9300    2.8663295E-02    1.3416851E+00   -1.3416851E+00
 1.9400    2.8071966E-02    1.3276578E+00   -1.3276578E+00
 1.9500    2.7502914E-02    1.3141889E+00   -1.3141889E+00
 1.9600    2.6944951E-02    1.3007667E+00   -1.3007667E+00
 1.9700    2.6383156E-02    1.2866756E+00   -1.2866756E+00
 1.9800    2.5808999E-02    1.2714855E+00   -1.2714855E+00
 1.9900    2.5227279E-02    1.2554124E+00   -1.2554124E+00
 2.0000    2.4654242E-02    1.2392574E+00   -1.2392574E+00
 2.0100    2.4108399E-02    1.2239688E+00   -1.2239688E+00
 2.0200    2.3600601E-02    1.2101401E+00   -1.2101401E+00
 2.0300    2.3129120E-02    1.1977359E+00   -1.1977359E+00
 2.0400    2.2681149E-02    1.1861381E+00   -1.1861381E+00
 2.0500    2.2238833E-02    1.1744366E+00   -1.1744366E+00
 2.0600    2.1787367E-02    1.1618473E+00   -1.1618473E+00
 2.0700    2.1322682E-02    1.1481335E+00   -1.1481335E+00
 2.0800    2.0855344E-02    1.1338455E+00   -1.1338455E+00
 2.0900    2.0407082E-02    1.1201685E+00   -1.1201685E+00
 2.1000    1.9999781E-02    1.1083418E+00   -1.1083418E+00
 2.1100    1.9642540E-02    1.0989360E+00   -1.0989360E+00
 2.1200    1.9325362E-02    1.0914635E+00   -1.0914635E+00
 2.1300    1.9024169E-02    1.0846129E+00   -1.0846129E+00
 2.1400    1.8713708E-02    1.0769542E+00   -1.0769542E+00
 2.1500    1.8379809E-02    1.0676472E+00   -1.0676472E+00
 2.1600    1.8024352E-02    1.0567616E+00   -1.0567616E+00
 2.1700    1.7662175E-02    1.0451377E+00   -1.0451377E+00
 2.1800    1.7313204E-02    1.0339518E+00   -1.0339518E+00
 2.1900    1.6993757E-02    1.0242065E+00   -1.0242065E+00
 2.2000    1.6710363E-02    1.0163449E+00   -1.0163449E+00
 2.2100    1.6458398E-02    1.0101409E+00   -1.0101409E+00
 2.2200    1.6225592E-02    1.0048850E+00   -1.0048850E+00
 2.2300    1.5997714E-02    9.9971801E-01   -9.9971801E-01
 2.2400    1.5763167E-02    9.9391531E-01   -9.9391531E-01
 2.2500    1.5515095E-02    9.8702767E-01   -9.8702767E-01
 2.2600    1.5251546E-02    9.7890516E-01   -9.7890516E-01
 2.2700    1.4974616E-02    9.6965509E-01   -9.6965509E-01
 2.2800    1.4689051E-02    9.5956257E-01   -9.5956257E-01
 2.2900    1.4400743E-02    9.4899897E-01   -9.4899897E-01
 2.3000    1.4115597E-02    9.3834988E-01   -9.3834988E-01
 2.3100    1.3838962E-02    9.2797724E-01   -9.2797724E-01
 2.3200    1.3575354E-02    9.1819941E-01   -9.1819941E-01
 2.3300    1.3328025E-02    9.0925879E-01   -9.0925879E-01
 2.3400    1.3098126E-02    9.0126133E-01   -9.0126133E-01
 2.3500    1.2883806E-02    8.9410755E-01   -8.9410755E-01
 2.3600    1.2679993E-02    8.8746834E-01   -8.8746834E-01
 2.3700    1.2479572E-02    8.8085872E-01   -8.8085872E-01
 2.3800    1.2275946E-02    8.7381349E-01   -8.7381349E-01
 2.3900    1.2065832E-02    8.6608983E-01   -8.6608983E-01
 2.4000    1.1850616E-02    8.5777475E-01   -8.5777475E-01
 2.4100    1.1635202E-02    8.4921543E-01   -8.4921543E-01
 2.4200    1.1424990E-02    8.4080721E-01   -8.4080721E-01
 2.4300    1.1222937E-02    8.3277740E-01   -8.3277740E-01
 2.4400    1.1028539E-02    8.2510174E-01   -8.2510174E-01
 2.4500    1.0838996E-02    8.1758159E-01   -8.1758159E-01
 2.4600    1.0651199E-02    8.0998796E-01   -8.0998796E-01
 2.4700    1.0462939E-02    8.0215346E-01   -8.0215346E-01
 2.4800    1.0272969E-02    7.9397937E-01   -7.9397937E-01
 2.4900    1.0080798E-02    7.8542276E-01   -7.8542276E-01
 2.5000    9.8870557E-03    7.7652754E-01   -7.7652754E-01
 2.5100    9.6941333E-03    7.6747864E-01   -7.6747864E-01
 2.5200    9.5060673E-03    7.5859824E-01   -7.5859824E-01
 2.5300    9.3271044E-03    7.5023573E-01   -7.5023573E-01
 2.5400    9.1595453E-03    7.4259361E-01   -7.4259361E-01
 2.5500    9.0022708E-03    7.3560098E-01   -7.3560098E-01
 2.5600    8.8511739E-03    7.2893813E-01   -7.2893813E-01
 2.5700    8.7014770E-03    7.2221929E-01   -7.2221929E-01
 2.5800    8.5504298E-03    7.1521600E-01   -7.1521600E-01
 2.5900    8.3984486E-03    7.0795958E-01   -7.0795958E-01
 2.6000    8.2479757E-03    7.0065453E-01   -7.0065453E-01
 2.6100    8.1012202E-03    6.9349178E-01   -6.9349178E-01
 2.6200    7.9587865E-03    6.8652965E-01   -6.8652965E-01
 2.6300    7.8202220E-03    6.7973627E-01   -6.7973627E-01
 2.6400    7.6856010E-03    6.7312474E-01   -6.7312474E-01
 2.6500    7.5562395E-03    6.6681802E-01   -6.6681802E-01
 2.6600    7.4336117E-03    6.6095670E-01   -6.6095670E-01
 2.6700    7.3175431E-03    6.5553770E-01   -6.5553770E-01
 2.6800    7.2056191E-03    6.5035540E-01   -6.5035540E-01
 2.6900    7.0945015E-03    6.4511377E-01   -6.4511377E-01
 2.7000    6.9819419E-03    6.3960762E-01   -6.3960762E-01
 2.7100    6.8677501E-03    6.3381561E-01   -6.3381561E-01
 2.7200    6.7530972E-03    6.2784244E-01   -6.2784244E-01
 2.7300    6.6389814E-03    6.2177980E-01   -6.2177980E-01
 2.7400    6.5252289E-03    6.1561152E-01   -6.1561152E-01
 2.7500    6.4107962E-03    6.0923834E-01   -6.0923834E-01
 2.7600    6.2949451E-03    6.0258730E-01   -6.0258730E-01
 2.7700    6.1780771E-03    5.9569331E-01   -5.9569331E-01
 2.7800    6.0613889E-03    5.8866960E-01   -5.8866960E-01
 2.7900    5.9456687E-03    5.8159274E-01   -5.8159274E-01
 2.8000    5.8303516E-03    5.7440825E-01   -5.7440825E-01
 2.8100    5.7137471E-03    5.6694838E-01   -5.6694838E-01
 2.8200    5.5944605E-03    5.5907014E-01   -5.5907014E-01
 2.8300    5.4731153E-03    5.5082968E-01   -5.5082968E-01
 2.8400    5.3530351E-03    5.4255858E-01   -5.4255858E-01
 2.8500    5.2389812E-03    5.3474462E-01   -5.3474462E-01
 2.8600    5.1343907E-03    5.2775316E-01   -5.2775316E-01
 2.8700    5.0389082E-03    5.2156700E-01   -5.2156700E-01
 2.8800    4.9480602E-03    5.1573881E-01   -5.1573881E-01
 2.8900    4.8554798E-03    5.0960972E-01   -5.0960972E-01
 2.9000    4.7563957E-03    5.0267101E-01   -5.0267101E-01
 2.9100    4.6504523E-03    4.9486989E-01   -4.9486989E-01
 2.9200    4.5424204E-03    4.8670174E-01   -4.8670174E-01
 2.9300    4.4403502E-03    4.7902957E-01   -4.7902957E-01
 2.9400    4.3518740E-03    4.7269481E-01   -4.7269481E-01
 2.9500    4.2804623E-03    4.6810640E-01   -4.6810640E-01
 2.9600    4.2237236E-03    4.6503836E-01   -4.6503836E-01
 2.9700    4.1747145E-03    4.6275332E-01   -4.6275332E-01
 2.9800    4.1253248E-03    4.6036314E-01   -4.6036314E-01
 2.9900    4.0696608E-03    4.5720445E-01   -4.5720445E-01
 3.0000    4.0057712E-03    4.5304205E-01   -4.5304205E-01
 3.0100    3.9353730E-03    4.4805235E-01   -4.4805235E-01
 3.0200    3.8622534E-03    4.4265412E-01   -4.4265412E-01
 3.0300    3.7902921E-03    4.3728825E-01   -4.3728825E-01
 3.0400    3.7218612E-03    4.3223229E-01   -4.3223229E-01
 3.0500    3.6570955E-03    4.2750958E-01   -4.2750958E-01
 3.0600    3.5942091E-03    4.2291789E-01   -4.2291789E-01
 3.0700    3.5305948E-03    4.1815230E-01   -4.1815230E-01
 3.0800    3.4641424E-03    4.1295909E-01   -4.1295909E-01
 3.0900    3.3942565E-03    4.0725974E-01   -4.0725974E-01
 3.1000    3.3222683E-03    4.0120649E-01   -4.0120649E-01
 3.1100    3.2510625E-03    3.9514451E-01   -3.9514451E-01
 3.1200    3.1839311E-03    3.8947781E-01   -3.8947781E-01
 3.1300    3.1231287E-03    3.8449298E-01   -3.8449298E-01
 3.1400    3.0689585E-03    3.8024208E-01   -3.8024208E-01
 3.1500    3.0199263E-03    3.7655404E-01   -3.7655404E-01
 3.1600    2.9737205E-03    3.7315062E-01   -3.7315062E-01
 3.1700    2.9282981E-03    3.6978022E-01   -3.6978022E-01
 3.1800    2.8825069E-03    3.6629793E-01   -3.6629793E-01
 3.1900    2.8361130E-03    3.6267261E-01   -3.6267261E-01
 3.2000    2.7894041E-03    3.5893950E-01   -3.5893950E-01
 3.2100    2.7426730E-03    3.5513540E-01   -3.5513540E-01
 3.2200    2.6958940E-03    3.5125654E-01   -3.5125654E-01
 3.2300    2.6487465E-03    3.4726043E-01   -3.4726043E-01
 3.2400    2.6008873E-03    3.4310055E-01   -3.4310055E-01
 3.2500    2.5522408E-03    3.3876476E-01   -3.3876476E-01
 3.2600    2.5031436E-03    3.3429572E-01   -3.3429572E-01
 3.2700    2.4543070E-03    3.2978754E-01   -3.2978754E-01
 3.2800    2.4066143E-03    3.2535991E-01   -3.2535991E-01
 3.2900    2.3608072E-03    3.2111617E-01   -3.2111617E-01
 3.3000    2.3171990E-03    3.1710354E-01   -3.1710354E-01
 3.3100    2.2755934E-03    3.1330009E-01   -3.1330009E-01
 3.3200    2.2354624E-03    3.0963739E-01   -3.0963739E-01
 3.3300    2.1962343E-03    3.0603916E-01   -3.0603916E-01
 3.3400    2.1574910E-03    3.0244874E-01   -3.0244874E-01
 3.3500    2.1190214E-03    2.9883731E-01   -2.9883731E-01
 3.3600    2.0808051E-03    2.9520236E-01   -2.9520236E-01
