# total charge: 15.000000 
# r(A)     rho (e/A^3)     4*pi*r^2*rho(e/A)  dip  
 0.0000    6.5348449E+00    0.0000000E+00    1.1968268E+02
 0.0100    6.5344295E+00    8.2114063E-03    1.1907755E+02
 0.0200    6.5338960E+00    3.2842943E-02    1.1727997E+02
 0.0300    6.5332098E+00    7.3888862E-02    1.1434246E+02
 0.0400    6.5323244E+00    1.3134017E-01    1.1034970E+02
 0.0500    6.5311762E+00    2.0518295E-01    1.0541442E+02
 0.0600    6.5296823E+00    2.9539587E-01    9.9671985E+01
 0.0700    6.5277443E+00    4.0194726E-01    9.3274233E+01
 0.0800    6.5252567E+00    5.2479228E-01    8.6382674E+01
 0.0900    6.5221164E+00    6.6387059E-01    7.9161704E+01
 0.1000    6.5182275E+00    8.1910463E-01    7.1772113E+01
 0.1100    6.5135017E+00    9.9039802E-01    6.4365255E+01
 0.1200    6.5078579E+00    1.1776342E+00    5.7078182E+01
 0.1300    6.5012207E+00    1.3806751E+00    5.0029903E+01
 0.1400    6.4935141E+00    1.5993581E+00    4.3318882E+01
 0.1500    6.4846451E+00    1.8334902E+00    3.7021789E+01
 0.1600    6.4744811E+00    2.0828347E+00    3.1193416E+01
 0.1700    6.4628363E+00    2.3470960E+00    2.5867627E+01
 0.1800    6.4494872E+00    2.6259113E+00    2.1059136E+01
 0.1900    6.4342202E+00    2.9188581E+00    1.6765886E+01
 0.2000    6.4168830E+00    3.2254772E+00    1.2971813E+01
 0.2100    6.3974033E+00    3.5452934E+00    9.6497854E+00
 0.2200    6.3757607E+00    3.8778163E+00    6.7645615E+00
 0.2300    6.3519348E+00    4.2225186E+00    4.2755927E+00
 0.2400    6.3258715E+00    4.5788110E+00    2.1395481E+00
 0.2500    6.2974894E+00    4.9460366E+00    3.1245355E-01
 0.2600    6.2667120E+00    5.3234882E+00   -1.2485974E+00
 0.2700    6.2334837E+00    5.7104222E+00   -2.5841418E+00
 0.2800    6.1977450E+00    6.1060398E+00   -3.7314043E+00
 0.2900    6.1593877E+00    6.5094366E+00   -4.7236769E+00
 0.3000    6.1182441E+00    6.9195711E+00   -5.5900165E+00
 0.3100    6.0741316E+00    7.3352927E+00   -6.3552470E+00
 0.3200    6.0269180E+00    7.7554161E+00   -7.0401897E+00
 0.3300    5.9765598E+00    8.1787892E+00   -7.6620185E+00
 0.3400    5.9231145E+00    8.6043452E+00   -8.2346795E+00
 0.3500    5.8667547E+00    9.0311673E+00   -8.7693625E+00
 0.3600    5.8077559E+00    9.4585208E+00   -9.2749502E+00
 0.3700    5.7463872E+00    9.8857176E+00   -9.7582835E+00
 0.3800    5.6827151E+00    1.0311763E+01   -1.0224179E+01
 0.3900    5.6164768E+00    1.0735025E+01   -1.0675428E+01
 0.4000    5.5471924E+00    1.1153292E+01   -1.1113143E+01
 0.4100    5.4744845E+00    1.1564339E+01   -1.1537560E+01
 0.4200    5.3983565E+00    1.1966579E+01   -1.1948896E+01
 0.4300    5.3191951E+00    1.2359266E+01   -1.2347706E+01
 0.4400    5.2375177E+00    1.2742092E+01   -1.2734609E+01
 0.4500    5.1537194E+00    1.3114619E+01   -1.3109823E+01
 0.4600    5.0680320E+00    1.3476120E+01   -1.3473078E+01
 0.4700    4.9806558E+00    1.3825859E+01   -1.3823948E+01
 0.4800    4.8918331E+00    1.4163284E+01   -1.4162096E+01
 0.4900    4.8017226E+00    1.4487688E+01   -1.4486956E+01
 0.5000    4.7102014E+00    1.4797534E+01   -1.4797088E+01
 0.5100    4.6168520E+00    1.5090241E+01   -1.5089972E+01
 0.5200    4.5212353E+00    1.5362916E+01   -1.5362755E+01
 0.5300    4.4232626E+00    1.5613646E+01   -1.5613551E+01
 0.5400    4.3233806E+00    1.5842396E+01   -1.5842340E+01
 0.5500    4.2224652E+00    1.6050972E+01   -1.6050939E+01
 0.5600    4.1215503E+00    1.6242263E+01   -1.6242244E+01
 0.5700    4.0215485E+00    1.6419234E+01   -1.6419223E+01
 0.5800    3.9229937E+00    1.6583778E+01   -1.6583772E+01
 0.5900    3.8258107E+00    1.6735449E+01   -1.6735446E+01
 0.6000    3.7292292E+00    1.6870636E+01   -1.6870634E+01
 0.6100    3.6320192E+00    1.6983127E+01   -1.6983126E+01
 0.6200    3.5330467E+00    1.7066428E+01   -1.7066427E+01
 0.6300    3.4318827E+00    1.7116832E+01   -1.7116832E+01
 0.6400    3.3290934E+00    1.7135461E+01   -1.7135461E+01
 0.6500    3.2260177E+00    1.7127869E+01   -1.7127869E+01
 0.6600    3.1241438E+00    1.7101285E+01   -1.7101285E+01
 0.6700    3.0244335E+00    1.7060962E+01   -1.7060962E+01
 0.6800    2.9269775E+00    1.7007758E+01   -1.7007758E+01
 0.6900    2.8311654E+00    1.6938435E+01   -1.6938435E+01
 0.7000    2.7362388E+00    1.6848450E+01   -1.6848450E+01
 0.7100    2.6418543E+00    1.6735374E+01   -1.6735374E+01
 0.7200    2.5483095E+00    1.6600724E+01   -1.6600724E+01
 0.7300    2.4563499E+00    1.6449239E+01   -1.6449239E+01
 0.7400    2.3667484E+00    1.6286411E+01   -1.6286411E+01
 0.7500    2.2799489E+00    1.6116009E+01   -1.6116009E+01
 0.7600    2.1959612E+00    1.5939023E+01   -1.5939023E+01
 0.7700    2.1144931E+00    1.5754244E+01   -1.5754244E+01
 0.7800    2.0351658E+00    1.5559616E+01   -1.5559616E+01
 0.7900    1.9576618E+00    1.5353299E+01   -1.5353299E+01
 0.8000    1.8817745E+00    1.5134128E+01   -1.5134128E+01
 0.8100    1.8074263E+00    1.4901861E+01   -1.4901861E+01
 0.8200    1.7347044E+00    1.4657606E+01   -1.4657606E+01
 0.8300    1.6638687E+00    1.4404066E+01   -1.4404066E+01
 0.8400    1.5952642E+00    1.4144938E+01   -1.4144938E+01
 0.8500    1.5291577E+00    1.3883533E+01   -1.3883533E+01
 0.8600    1.4656188E+00    1.3621590E+01   -1.3621590E+01
 0.8700    1.4045286E+00    1.3359154E+01   -1.3359154E+01
 0.8800    1.3456802E+00    1.3095348E+01   -1.3095348E+01
 0.8900    1.2888659E+00    1.2829142E+01   -1.2829142E+01
 0.9000    1.2339056E+00    1.2559630E+01   -1.2559630E+01
 0.9100    1.1806584E+00    1.2286181E+01   -1.2286181E+01
 0.9200    1.1290638E+00    1.2008922E+01   -1.2008922E+01
 0.9300    1.0791927E+00    1.1729372E+01   -1.1729372E+01
 0.9400    1.0312429E+00    1.1450555E+01   -1.1450555E+01
 0.9500    9.8544886E-01    1.1176123E+01   -1.1176123E+01
 0.9600    9.4196075E-01    1.0909005E+01   -1.0909005E+01
 0.9700    9.0078258E-01    1.0650581E+01   -1.0650581E+01
 0.9800    8.6179832E-01    1.0400822E+01   -1.0400822E+01
 0.9900    8.2481781E-01    1.0158703E+01   -1.0158703E+01
 1.0000    7.8957727E-01    9.9221206E+00   -9.9221206E+00
 1.0100    7.5573072E-01    9.6876778E+00   -9.6876778E+00
 1.0200    7.2292255E-01    9.4515271E+00   -9.4515271E+00
 1.0300    6.9094467E-01    9.2114412E+00   -9.2114412E+00
 1.0400    6.5985457E-01    8.9686024E+00   -8.9686024E+00
 1.0500    6.2993006E-01    8.7273179E+00   -8.7273179E+00
 1.0600    6.0147707E-01    8.4926001E+00   -8.4926001E+00
 1.0700    5.7463858E-01    8.2674618E+00   -8.2674618E+00
 1.0800    5.4933898E-01    8.0518893E+00   -8.0518893E+00
 1.0900    5.2536802E-01    7.8437997E+00   -7.8437997E+00
 1.1000    5.0250241E-01    7.6407041E+00   -7.6407041E+00
 1.1100    4.8057182E-01    7.4407056E+00   -7.4407056E+00
 1.1200    4.5945848E-01    7.2425613E+00   -7.2425613E+00
 1.1300    4.3907955E-01    7.0454698E+00   -7.0454698E+00
 1.1400    4.1938972E-01    6.8491606E+00   -6.8491606E+00
 1.1500    4.0039288E-01    6.6541393E+00   -6.6541393E+00
 1.1600    3.8213045E-01    6.4615616E+00   -6.4615616E+00
 1.1700    3.6464229E-01    6.2726148E+00   -6.2726148E+00
 1.1800    3.4793307E-01    6.0879291E+00   -6.0879291E+00
 1.1900    3.3197476E-01    5.9075697E+00   -5.9075697E+00
 1.2000    3.1673678E-01    5.7315338E+00   -5.7315338E+00
 1.2100    3.0220940E-01    5.5601764E+00   -5.5601764E+00
 1.2200    2.8839945E-01    5.3941617E+00   -5.3941617E+00
 1.2300    2.7530839E-01    5.2340701E+00   -5.2340701E+00
 1.2400    2.6291488E-01    5.0800549E+00   -5.0800549E+00
 1.2500    2.5117363E-01    4.9317827E+00   -4.9317827E+00
 1.2600    2.4002692E-01    4.7886258E+00   -4.7886258E+00
 1.2700    2.2941901E-01    4.6499331E+00   -4.6499331E+00
 1.2800    2.1930389E-01    4.5151911E+00   -4.5151911E+00
 1.2900    2.0964339E-01    4.3839990E+00   -4.3839990E+00
 1.3000    2.0040305E-01    4.2559928E+00   -4.2559928E+00
 1.3100    1.9155799E-01    4.1309766E+00   -4.1309766E+00
 1.3200    1.8310939E-01    4.0092981E+00   -4.0092981E+00
 1.3300    1.7509194E-01    3.8920581E+00   -3.8920581E+00
 1.3400    1.6755194E-01    3.7806712E+00   -3.7806712E+00
 1.3500    1.6050357E-01    3.6758864E+00   -3.6758864E+00
 1.3600    1.5390046E-01    3.5770713E+00   -3.5770713E+00
 1.3700    1.4765235E-01    3.4825020E+00   -3.4825020E+00
 1.3800    1.4167712E-01    3.3905314E+00   -3.3905314E+00
 1.3900    1.3594630E-01    3.3007061E+00   -3.3007061E+00
 1.4000    1.3048850E-01    3.2139430E+00   -3.2139430E+00
 1.4100    1.2535083E-01    3.1316651E+00   -3.1316651E+00
 1.4200    1.2055068E-01    3.0546131E+00   -3.0546131E+00
 1.4300    1.1605318E-01    2.9822152E+00   -2.9822152E+00
 1.4400    1.1178548E-01    2.9128643E+00   -2.9128643E+00
 1.4500    1.0767161E-01    2.8447694E+00   -2.8447694E+00
 1.4600    1.0366261E-01    2.7767561E+00   -2.7767561E+00
 1.4700    9.9745387E-02    2.7085531E+00   -2.7085531E+00
 1.4800    9.5928499E-02    2.6404682E+00   -2.6404682E+00
 1.4900    9.2217146E-02    2.5727292E+00   -2.5727292E+00
 1.5000    8.8596636E-02    2.5050109E+00   -2.5050109E+00
 1.5100    8.5038913E-02    2.4365844E+00   -2.4365844E+00
 1.5200    8.1530144E-02    2.3670926E+00   -2.3670926E+00
 1.5300    7.8100345E-02    2.2974479E+00   -2.2974479E+00
 1.5400    7.4830721E-02    2.2301354E+00   -2.2301354E+00
 1.5500    7.1825794E-02    2.1684714E+00   -2.1684714E+00
 1.5600    6.9161904E-02    2.1150761E+00   -2.1150761E+00
 1.5700    6.6846114E-02    2.0705482E+00   -2.0705482E+00
 1.5800    6.4816884E-02    2.0333502E+00   -2.0333502E+00
 1.5900    6.2984303E-02    2.0009510E+00   -2.0009510E+00
 1.6000    6.1274161E-02    1.9711842E+00   -1.9711842E+00
 1.6100    5.9643745E-02    1.9427930E+00   -1.9427930E+00
 1.6200    5.8071111E-02    1.9151378E+00   -1.9151378E+00
 1.6300    5.6541093E-02    1.8877708E+00   -1.8877708E+00
 1.6400    5.5041492E-02    1.8603204E+00   -1.8603204E+00
 1.6500    5.3565487E-02    1.8325794E+00   -1.8325794E+00
 1.6600    5.2114384E-02    1.8046112E+00   -1.8046112E+00
 1.6700    5.0700454E-02    1.7768659E+00   -1.7768659E+00
 1.6800    4.9347863E-02    1.7502367E+00   -1.7502367E+00
 1.6900    4.8084841E-02    1.7258040E+00   -1.7258040E+00
 1.7000    4.6925329E-02    1.7041783E+00   -1.7041783E+00
 1.7100    4.5851481E-02    1.6848275E+00   -1.6848275E+00
 1.7200    4.4814124E-02    1.6660256E+00   -1.6660256E+00
 1.7300    4.3757008E-02    1.6456963E+00   -1.6456963E+00
 1.7400    4.2650701E-02    1.6226862E+00   -1.6226862E+00
 1.7500    4.1511497E-02    1.5975496E+00   -1.5975496E+00
 1.7600    4.0390340E-02    1.5722178E+00   -1.5722178E+00
 1.7700    3.9338943E-02    1.5487420E+00   -1.5487420E+00
 1.7800    3.8377464E-02    1.5280098E+00   -1.5280098E+00
 1.7900    3.7487780E-02    1.5094045E+00   -1.5094045E+00
 1.8000    3.6638235E-02    1.4917272E+00   -1.4917272E+00
 1.8100    3.5820221E-02    1.4746714E+00   -1.4746714E+00
 1.8200    3.5062445E-02    1.4594689E+00   -1.4594689E+00
 1.8300    3.4402364E-02    1.4477725E+00   -1.4477725E+00
 1.8400    3.3833291E-02    1.4394274E+00   -1.4394274E+00
 1.8500    3.3277205E-02    1.4311994E+00   -1.4311994E+00
 1.8600    3.2619343E-02    1.4181134E+00   -1.4181134E+00
 1.8700    3.1784184E-02    1.3967033E+00   -1.3967033E+00
 1.8800    3.0788146E-02    1.3674426E+00   -1.3674426E+00
 1.8900    2.9722931E-02    1.3342128E+00   -1.3342128E+00
 1.9000    2.8688773E-02    1.3014547E+00   -1.3014547E+00
 1.9100    2.7739560E-02    1.2716751E+00   -1.2716751E+00
 1.9200    2.6879935E-02    1.2452041E+00   -1.2452041E+00
 1.9300    2.6099079E-02    1.2216581E+00   -1.2216581E+00
 1.9400    2.5398267E-02    1.2012058E+00   -1.2012058E+00
 1.9500    2.4790073E-02    1.1845595E+00   -1.1845595E+00
 1.9600    2.4282021E-02    1.1722138E+00   -1.1722138E+00
 1.9700    2.3866864E-02    1.1639590E+00   -1.1639590E+00
 1.9800    2.3524959E-02    1.1589618E+00   -1.1589618E+00
 1.9900    2.3229681E-02    1.1560038E+00   -1.1560038E+00
 2.0000    2.2949876E-02    1.1535866E+00   -1.1535866E+00
 2.0100    2.2652842E-02    1.1500710E+00   -1.1500710E+00
 2.0200    2.2311681E-02    1.1440497E+00   -1.1440497E+00
 2.0300    2.1913543E-02    1.1347875E+00   -1.1347875E+00
 2.0400    2.1461618E-02    1.1223612E+00   -1.1223612E+00
 2.0500    2.0968668E-02    1.1073590E+00   -1.1073590E+00
 2.0600    2.0447843E-02    1.0904150E+00   -1.0904150E+00
 2.0700    1.9909695E-02    1.0720503E+00   -1.0720503E+00
 2.0800    1.9368748E-02    1.0530236E+00   -1.0530236E+00
 2.0900    1.8852191E-02    1.0348187E+00   -1.0348187E+00
 2.1000    1.8398054E-02    1.0195777E+00   -1.0195777E+00
 2.1100    1.8038945E-02    1.0092201E+00   -1.0092201E+00
 2.1200    1.7783067E-02    1.0043573E+00   -1.0043573E+00
 2.1300    1.7609160E-02    1.0039399E+00   -1.0039399E+00
 2.1400    1.7479374E-02    1.0059196E+00   -1.0059196E+00
 2.1500    1.7357763E-02    1.0082786E+00   -1.0082786E+00
 2.1600    1.7219539E-02    1.0095757E+00   -1.0095757E+00
 2.1700    1.7048083E-02    1.0087995E+00   -1.0087995E+00
 2.1800    1.6828944E-02    1.0050316E+00   -1.0050316E+00
 2.1900    1.6550512E-02    9.9749227E-01   -9.9749227E-01
 2.2000    1.6211418E-02    9.8599846E-01   -9.8599846E-01
 2.2100    1.5826151E-02    9.7133651E-01   -9.7133651E-01
 2.2200    1.5421476E-02    9.5508441E-01   -9.5508441E-01
 2.2300    1.5024782E-02    9.3891825E-01   -9.3891825E-01
 2.2400    1.4652944E-02    9.2391240E-01   -9.2391240E-01
 2.2500    1.4310194E-02    9.1037521E-01   -9.1037521E-01
 2.2600    1.3995881E-02    8.9831153E-01   -8.9831153E-01
 2.2700    1.3713945E-02    8.8802251E-01   -8.8802251E-01
 2.2800    1.3474163E-02    8.8019999E-01   -8.8019999E-01
 2.2900    1.3283514E-02    8.7537431E-01   -8.7537431E-01
 2.3000    1.3136178E-02    8.7324186E-01   -8.7324186E-01
 2.3100    1.3011720E-02    8.7250621E-01   -8.7250621E-01
 2.3200    1.2882689E-02    8.7134946E-01   -8.7134946E-01
 2.3300    1.2725322E-02    8.6814145E-01   -8.6814145E-01
 2.3400    1.2527103E-02    8.6197016E-01   -8.6197016E-01
 2.3500    1.2289423E-02    8.5285870E-01   -8.5285870E-01
 2.3600    1.2026192E-02    8.4170909E-01   -8.4170909E-01
 2.3700    1.1758974E-02    8.2999600E-01   -8.2999600E-01
 2.3800    1.1509200E-02    8.1923577E-01   -8.1923577E-01
 2.3900    1.1290006E-02    8.1040078E-01   -8.1040078E-01
 2.4000    1.1101892E-02    8.0358043E-01   -8.0358043E-01
 2.4100    1.0934760E-02    7.9809244E-01   -7.9809244E-01
 2.4200    1.0774700E-02    7.9294993E-01   -7.9294993E-01
 2.4300    1.0610891E-02    7.8736163E-01   -7.8736163E-01
 2.4400    1.0438915E-02    7.8098891E-01   -7.8098891E-01
 2.4500    1.0260148E-02    7.7391930E-01   -7.7391930E-01
 2.4600    1.0079354E-02    7.6650113E-01   -7.6650113E-01
 2.4700    9.9024377E-03    7.5918198E-01   -7.5918198E-01
 2.4800    9.7346639E-03    7.5237471E-01   -7.5237471E-01
 2.4900    9.5787988E-03    7.4631060E-01   -7.4631060E-01
 2.5000    9.4335066E-03    7.4090587E-01   -7.4090587E-01
 2.5100    9.2934494E-03    7.3575674E-01   -7.3575674E-01
 2.5200    9.1518723E-03    7.3033295E-01   -7.3033295E-01
 2.5300    9.0044142E-03    7.2427979E-01   -7.2427979E-01
 2.5400    8.8516977E-03    7.1763543E-01   -7.1763543E-01
 2.5500    8.6990355E-03    7.1082276E-01   -7.1082276E-01
 2.5600    8.5533778E-03    7.0441314E-01   -7.0441314E-01
 2.5700    8.4191505E-03    6.9878630E-01   -6.9878630E-01
 2.5800    8.2954140E-03    6.9388475E-01   -6.9388475E-01
 2.5900    8.1763595E-03    6.8923825E-01   -6.8923825E-01
 2.6000    8.0551115E-03    6.8427098E-01   -6.8427098E-01
 2.6100    7.9280465E-03    6.7866753E-01   -6.7866753E-01
 2.6200    7.7958099E-03    6.7247119E-01   -6.7247119E-01
 2.6300    7.6597041E-03    6.6578400E-01   -6.6578400E-01
 2.6400    7.5167083E-03    6.5833268E-01   -6.5833268E-01
 2.6500    7.3586877E-03    6.4938460E-01   -6.4938460E-01
 2.6600    7.1781335E-03    6.3824095E-01   -6.3824095E-01
 2.6700    6.9763466E-03    6.2497182E-01   -6.2497182E-01
 2.6800    6.7668560E-03    6.1075409E-01   -6.1075409E-01
 2.6900    6.5705583E-03    5.9747082E-01   -5.9747082E-01
 2.7000    6.4058584E-03    5.8683327E-01   -5.8683327E-01
 2.7100    6.2804954E-03    5.7961865E-01   -5.7961865E-01
 2.7200    6.1896578E-03    5.7545890E-01   -5.7545890E-01
 2.7300    6.1203592E-03    5.7320777E-01   -5.7320777E-01
 2.7400    6.0584569E-03    5.7157472E-01   -5.7157472E-01
 2.7500    5.9938650E-03    5.6961603E-01   -5.6961603E-01
 2.7600    5.9216102E-03    5.6684960E-01   -5.6684960E-01
 2.7700    5.8398447E-03    5.6308078E-01   -5.6308078E-01
 2.7800    5.7478412E-03    5.5821849E-01   -5.5821849E-01
 2.7900    5.6457783E-03    5.5225809E-01   -5.5225809E-01
 2.8000    5.5357095E-03    5.4538001E-01   -5.4538001E-01
 2.8100    5.4224331E-03    5.3804265E-01   -5.3804265E-01
 2.8200    5.3140401E-03    5.3104694E-01   -5.3104694E-01
 2.8300    5.2221306E-03    5.2556988E-01   -5.2556988E-01
 2.8400    5.1601241E-03    5.2300603E-01   -5.2300603E-01
 2.8500    5.1374154E-03    5.2437776E-01   -5.2437776E-01
 2.8600    5.1502793E-03    5.2938632E-01   -5.2938632E-01
 2.8700    5.1758767E-03    5.3574433E-01   -5.3574433E-01
 2.8800    5.1773131E-03    5.3963395E-01   -5.3963395E-01
 2.8900    5.1210334E-03    5.3748105E-01   -5.3748105E-01
 2.9000    4.9968408E-03    5.2808201E-01   -5.2808201E-01
 2.9100    4.8259501E-03    5.1354519E-01   -5.1354519E-01
 2.9200    4.6499003E-03    4.9821776E-01   -4.9821776E-01
 2.9300    4.5071731E-03    4.8623850E-01   -4.8623850E-01
 2.9400    4.4131263E-03    4.7934796E-01   -4.7934796E-01
 2.9500    4.3558323E-03    4.7634876E-01   -4.7634876E-01
 2.9600    4.3087321E-03    4.7439792E-01   -4.7439792E-01
 2.9700    4.2494389E-03    4.7103628E-01   -4.7103628E-01
 2.9800    4.1710313E-03    4.6546372E-01   -4.6546372E-01
 2.9900    4.0799687E-03    4.5836250E-01   -4.5836250E-01
 3.0000    3.9861952E-03    4.5082805E-01   -4.5082805E-01
 3.0100    3.8955713E-03    4.4352082E-01   -4.4352082E-01
 3.0200    3.8095525E-03    4.3661405E-01   -4.3661405E-01
 3.0300    3.7289760E-03    4.3021417E-01   -4.3021417E-01
 3.0400    3.6560719E-03    4.2459196E-01   -4.2459196E-01
 3.0500    3.5924436E-03    4.1995186E-01   -4.1995186E-01
 3.0600    3.5357306E-03    4.1603693E-01   -4.1603693E-01
 3.0700    3.4790725E-03    4.1205017E-01   -4.1205017E-01
 3.0800    3.4147931E-03    4.0707618E-01   -4.0707618E-01
 3.0900    3.3399210E-03    4.0074029E-01   -4.0074029E-01
 3.1000    3.2594009E-03    3.9361444E-01   -3.9361444E-01
 3.1100    3.1841875E-03    3.8701631E-01   -3.8701631E-01
 3.1200    3.1249377E-03    3.8226138E-01   -3.8226138E-01
 3.1300    3.0854334E-03    3.7985226E-01   -3.7985226E-01
 3.1400    3.0603788E-03    3.7917906E-01   -3.7917906E-01
 3.1500    3.0389569E-03    3.7892696E-01   -3.7892696E-01
 3.1600    3.0112372E-03    3.7785833E-01   -3.7785833E-01
 3.1700    2.9730497E-03    3.7543137E-01   -3.7543137E-01
 3.1800    2.9268971E-03    3.7193886E-01   -3.7193886E-01
 3.1900    2.8793021E-03    3.6819549E-01   -3.6819549E-01
 3.2000    2.8365538E-03    3.6500671E-01   -3.6500671E-01
 3.2100    2.8011261E-03    3.6270421E-01   -3.6270421E-01
 3.2200    2.7705507E-03    3.6098380E-01   -3.6098380E-01
 3.2300    2.7392089E-03    3.5912039E-01   -3.5912039E-01
 3.2400    2.7018717E-03    3.5642209E-01   -3.5642209E-01
 3.2500    2.6569802E-03    3.5266707E-01   -3.5266707E-01
 3.2600    2.6079672E-03    3.4829496E-01   -3.4829496E-01
 3.2700    2.5617721E-03    3.4422774E-01   -3.4422774E-01
 3.2800    2.5248590E-03    3.4134590E-01   -3.4134590E-01
 3.2900    2.4986890E-03    3.3987081E-01   -3.3987081E-01
 3.3000    2.4777818E-03    3.3907893E-01   -3.3907893E-01
 3.3100    2.4523917E-03    3.3764140E-01   -3.3764140E-01
 3.3200    2.4144160E-03    3.3442453E-01   -3.3442453E-01
 3.3300    2.3623313E-03    3.2918432E-01   -3.2918432E-01
 3.3400    2.3016076E-03    3.2265179E-01   -3.2265179E-01
 3.3500    2.2406776E-03    3.1599402E-01   -3.1599402E-01
 3.3600    2.1858326E-03    3.1010254E-01   -3.1010254E-01
