# total charge: 18.000000 
# r(A)     rho (e/A^3)     4*pi*r^2*rho(e/A)  dip  
 0.0000    1.3685222E+01    0.0000000E+00    1.4361922E+02
 0.0100    1.3676595E+01    1.7186516E-02    1.4288573E+02
 0.0200    1.3665684E+01    6.8691219E-02    1.4070668E+02
 0.0300    1.3652015E+01    1.5440065E-01    1.3714521E+02
 0.0400    1.3635069E+01    2.7414933E-01    1.3230310E+02
 0.0500    1.3614261E+01    4.2770461E-01    1.2631581E+02
 0.0600    1.3588923E+01    6.1474841E-01    1.1934611E+02
 0.0700    1.3558362E+01    8.3485909E-01    1.1157656E+02
 0.0800    1.3521978E+01    1.0875020E+00    1.0320146E+02
 0.0900    1.3479391E+01    1.3720348E+00    9.4418655E+01
 0.1000    1.3430474E+01    1.6877232E+00    8.5421738E+01
 0.1100    1.3375288E+01    2.0337539E+00    7.6393030E+01
 0.1200    1.3313955E+01    2.4092365E+00    6.7497743E+01
 0.1300    1.3246561E+01    2.8131941E+00    5.8879499E+01
 0.1400    1.3173125E+01    3.2445521E+00    5.0657336E+01
 0.1500    1.3093632E+01    3.7021371E+00    4.2924197E+01
 0.1600    1.3008093E+01    4.1846916E+00    3.5746809E+01
 0.1700    1.2916598E+01    4.6908964E+00    2.9166771E+01
 0.1800    1.2819299E+01    5.2193827E+00    2.3202674E+01
 0.1900    1.2716331E+01    5.7687123E+00    1.7852981E+01
 0.2000    1.2607727E+01    6.3373349E+00    1.3099413E+01
 0.2100    1.2493396E+01    6.9235522E+00    8.9105423E+00
 0.2200    1.2373183E+01    7.5255224E+00    5.2453310E+00
 0.2300    1.2246966E+01    8.1413056E+00    2.0564280E+00
 0.2400    1.2114725E+01    8.7689159E+00   -7.0688499E-01
 0.2500    1.1976527E+01    9.4063424E+00   -3.0961543E+00
 0.2600    1.1832477E+01    1.0051531E+01   -5.1616625E+00
 0.2700    1.1682665E+01    1.0702354E+01   -6.9508177E+00
 0.2800    1.1527157E+01    1.1356595E+01   -8.5070325E+00
 0.2900    1.1366016E+01    1.2011967E+01   -9.8690554E+00
 0.3000    1.1199332E+01    1.2666146E+01   -1.1070681E+01
 0.3100    1.1027248E+01    1.3316816E+01   -1.2140761E+01
 0.3200    1.0849988E+01    1.3961725E+01   -1.3103454E+01
 0.3300    1.0667874E+01    1.4598748E+01   -1.3978623E+01
 0.3400    1.0481296E+01    1.5225890E+01   -1.4782291E+01
 0.3500    1.0290629E+01    1.5841193E+01   -1.5527027E+01
 0.3600    1.0096139E+01    1.6442588E+01   -1.6222303E+01
 0.3700    9.8979541E+00    1.7027808E+01   -1.6874887E+01
 0.3800    9.6961504E+00    1.7594478E+01   -1.7489378E+01
 0.3900    9.4908669E+00    1.8140321E+01   -1.8068805E+01
 0.4000    9.2823764E+00    1.8663325E+01   -1.8615146E+01
 0.4100    9.0710486E+00    1.9161746E+01   -1.9129612E+01
 0.4200    8.8572479E+00    1.9633930E+01   -1.9612711E+01
 0.4300    8.6412542E+00    2.0078144E+01   -2.0064271E+01
 0.4400    8.4232777E+00    2.0492566E+01   -2.0483586E+01
 0.4500    8.2035548E+00    2.0875504E+01   -2.0869750E+01
 0.4600    7.9824411E+00    2.1225662E+01   -2.1222011E+01
 0.4700    7.7604179E+00    2.1542231E+01   -2.1539938E+01
 0.4800    7.5380045E+00    2.1824722E+01   -2.1823296E+01
 0.4900    7.3156474E+00    2.2072666E+01   -2.2071788E+01
 0.5000    7.0936788E+00    2.2285449E+01   -2.2284914E+01
 0.5100    6.8723748E+00    2.2462446E+01   -2.2462123E+01
 0.5200    6.6520600E+00    2.2603345E+01   -2.2603152E+01
 0.5300    6.4331603E+00    2.2708371E+01   -2.2708257E+01
 0.5400    6.2161411E+00    2.2778140E+01   -2.2778073E+01
 0.5500    6.0013677E+00    2.2813162E+01   -2.2813123E+01
 0.5600    5.7890010E+00    2.2813375E+01   -2.2813353E+01
 0.5700    5.5790335E+00    2.2778155E+01   -2.2778142E+01
 0.5800    5.3714616E+00    2.2706925E+01   -2.2706918E+01
 0.5900    5.1664771E+00    2.2599998E+01   -2.2599994E+01
 0.6000    4.9645355E+00    2.2459029E+01   -2.2459027E+01
 0.6100    4.7662482E+00    2.2286721E+01   -2.2286720E+01
 0.6200    4.5721795E+00    2.2085972E+01   -2.2085971E+01
 0.6300    4.3826849E+00    2.1859046E+01   -2.1859046E+01
 0.6400    4.1978879E+00    2.1607307E+01   -2.1607307E+01
 0.6500    4.0177882E+00    2.1331609E+01   -2.1331609E+01
 0.6600    3.8424103E+00    2.1033012E+01   -2.1033012E+01
 0.6700    3.6718905E+00    2.0713295E+01   -2.0713295E+01
 0.6800    3.5064634E+00    2.0374971E+01   -2.0374971E+01
 0.6900    3.3463783E+00    2.0020876E+01   -2.0020876E+01
 0.7000    3.1918050E+00    1.9653608E+01   -1.9653608E+01
 0.7100    3.0427801E+00    1.9275121E+01   -1.9275121E+01
 0.7200    2.8992189E+00    1.8886690E+01   -1.8886690E+01
 0.7300    2.7609853E+00    1.8489267E+01   -1.8489267E+01
 0.7400    2.6279722E+00    1.8083982E+01   -1.8083982E+01
 0.7500    2.5001350E+00    1.7672413E+01   -1.7672413E+01
 0.7600    2.3774637E+00    1.7256429E+01   -1.7256429E+01
 0.7700    2.2599324E+00    1.6837855E+01   -1.6837855E+01
 0.7800    2.1474852E+00    1.6418340E+01   -1.6418340E+01
 0.7900    2.0400680E+00    1.5999584E+01   -1.5999584E+01
 0.8000    1.9376681E+00    1.5583651E+01   -1.5583651E+01
 0.8100    1.8403100E+00    1.5172980E+01   -1.5172980E+01
 0.8200    1.7480013E+00    1.4769960E+01   -1.4769960E+01
 0.8300    1.6606664E+00    1.4376344E+01   -1.4376344E+01
 0.8400    1.5781177E+00    1.3992903E+01   -1.3992903E+01
 0.8500    1.5000772E+00    1.3619505E+01   -1.3619505E+01
 0.8600    1.4262322E+00    1.3255527E+01   -1.3255527E+01
 0.8700    1.3562938E+00    1.2900370E+01   -1.2900370E+01
 0.8800    1.2900340E+00    1.2553834E+01   -1.2553834E+01
 0.8900    1.2272874E+00    1.2216201E+01   -1.2216201E+01
 0.9000    1.1679230E+00    1.1888008E+01   -1.1888008E+01
 0.9100    1.1118071E+00    1.1569700E+01   -1.1569700E+01
 0.9200    1.0587836E+00    1.1261409E+01   -1.1261409E+01
 0.9300    1.0086794E+00    1.0962987E+01   -1.0962987E+01
 0.9400    9.6132401E-01    1.0674201E+01   -1.0674201E+01
 0.9500    9.1655751E-01    1.0394816E+01   -1.0394816E+01
 0.9600    8.7421808E-01    1.0124466E+01   -1.0124466E+01
 0.9700    8.3412012E-01    9.8623844E+00   -9.8623844E+00
 0.9800    7.9604292E-01    9.6072369E+00   -9.6072369E+00
 0.9900    7.5974016E-01    9.3571876E+00   -9.3571876E+00
 1.0000    7.2496809E-01    9.1102177E+00   -9.1102177E+00
 1.0100    6.9152793E-01    8.8646652E+00   -8.8646652E+00
 1.0200    6.5931291E-01    8.6198912E+00   -8.6198912E+00
 1.0300    6.2833560E-01    8.3767582E+00   -8.3767582E+00
 1.0400    5.9870496E-01    8.1374699E+00   -8.1374699E+00
 1.0500    5.7054836E-01    7.9046186E+00   -7.9046186E+00
 1.0600    5.4392035E-01    7.6799236E+00   -7.6799236E+00
 1.0700    5.1875904E-01    7.4635096E+00   -7.4635096E+00
 1.0800    4.9491601E-01    7.2541891E+00   -7.2541891E+00
 1.0900    4.7222758E-01    7.0504074E+00   -7.0504074E+00
 1.1000    4.5057033E-01    6.8510608E+00   -6.8510608E+00
 1.1100    4.2987062E-01    6.6556976E+00   -6.6556976E+00
 1.1200    4.1008275E-01    6.4642391E+00   -6.4642391E+00
 1.1300    3.9116815E-01    6.2766836E+00   -6.2766836E+00
 1.1400    3.7309250E-01    6.0930688E+00   -6.0930688E+00
 1.1500    3.5583276E-01    5.9135936E+00   -5.9135936E+00
 1.1600    3.3937821E-01    5.7386508E+00   -5.7386508E+00
 1.1700    3.2372097E-01    5.5686821E+00   -5.5686821E+00
 1.1800    3.0884508E-01    5.4039904E+00   -5.4039904E+00
 1.1900    2.9472365E-01    5.2446774E+00   -5.2446774E+00
 1.2000    2.8132405E-01    5.0907200E+00   -5.0907200E+00
 1.2100    2.6861370E-01    4.9420686E+00   -4.9420686E+00
 1.2200    2.5656146E-01    4.7986707E+00   -4.7986707E+00
 1.2300    2.4513535E-01    4.6604305E+00   -4.6604305E+00
 1.2400    2.3430100E-01    4.5271760E+00   -4.5271760E+00
 1.2500    2.2402296E-01    4.3986806E+00   -4.3986806E+00
 1.2600    2.1426805E-01    4.2747269E+00   -4.2747269E+00
 1.2700    2.0500836E-01    4.1551707E+00   -4.1551707E+00
 1.2800    1.9622166E-01    4.0399570E+00   -4.0399570E+00
 1.2900    1.8788883E-01    3.9290743E+00   -3.9290743E+00
 1.3000    1.7999004E-01    3.8224785E+00   -3.8224785E+00
 1.3100    1.7250343E-01    3.7200622E+00   -3.7200622E+00
 1.3200    1.6540815E-01    3.6217180E+00   -3.6217180E+00
 1.3300    1.5868885E-01    3.5274393E+00   -3.5274393E+00
 1.3400    1.5233581E-01    3.4373319E+00   -3.4373319E+00
 1.3500    1.4633858E-01    3.3514770E+00   -3.3514770E+00
 1.3600    1.4067720E-01    3.2697264E+00   -3.2697264E+00
 1.3700    1.3531740E-01    3.1915720E+00   -3.1915720E+00
 1.3800    1.3021279E-01    3.1161738E+00   -3.1161738E+00
 1.3900    1.2531402E-01    3.0425599E+00   -3.0425599E+00
 1.4000    1.2058342E-01    2.9699800E+00   -2.9699800E+00
 1.4100    1.1601012E-01    2.8983041E+00   -2.8983041E+00
 1.4200    1.1161633E-01    2.8282272E+00   -2.8282272E+00
 1.4300    1.0744580E-01    2.7610316E+00   -2.7610316E+00
 1.4400    1.0353706E-01    2.6979299E+00   -2.6979299E+00
 1.4500    9.9897863E-02    2.6393809E+00   -2.6393809E+00
 1.4600    9.6498768E-02    2.5848619E+00   -2.5848619E+00
 1.4700    9.3288843E-02    2.5332278E+00   -2.5332278E+00
 1.4800    9.0219095E-02    2.4833147E+00   -2.4833147E+00
 1.4900    8.7255777E-02    2.4343140E+00   -2.4343140E+00
 1.5000    8.4378505E-02    2.3857460E+00   -2.3857460E+00
 1.5100    8.1572647E-02    2.3372669E+00   -2.3372669E+00
 1.5200    7.8828556E-02    2.2886565E+00   -2.2886565E+00
 1.5300    7.6151040E-02    2.2401060E+00   -2.2401060E+00
 1.5400    7.3569506E-02    2.1925482E+00   -2.1925482E+00
 1.5500    7.1134234E-02    2.1475927E+00   -2.1475927E+00
 1.5600    6.8894114E-02    2.1068867E+00   -2.1068867E+00
 1.5700    6.6869424E-02    2.0712702E+00   -2.0712702E+00
 1.5800    6.5040603E-02    2.0403685E+00   -2.0403685E+00
 1.5900    6.3360094E-02    2.0128894E+00   -2.0128894E+00
 1.6000    6.1774111E-02    1.9872675E+00   -1.9872675E+00
 1.6100    6.0237620E-02    1.9621374E+00   -1.9621374E+00
 1.6200    5.8719100E-02    1.9365080E+00   -1.9365080E+00
 1.6300    5.7201465E-02    1.9098191E+00   -1.9098191E+00
 1.6400    5.5682150E-02    1.8819737E+00   -1.8819737E+00
 1.6500    5.4170140E-02    1.8532658E+00   -1.8532658E+00
 1.6600    5.2680377E-02    1.8242104E+00   -1.8242104E+00
 1.6700    5.1230160E-02    1.7954302E+00   -1.7954302E+00
 1.6800    4.9839070E-02    1.7676585E+00   -1.7676585E+00
 1.6900    4.8527554E-02    1.7416933E+00   -1.7416933E+00
 1.7000    4.7309615E-02    1.7181343E+00   -1.7181343E+00
 1.7100    4.6183201E-02    1.6970167E+00   -1.6970167E+00
 1.7200    4.5127689E-02    1.6776828E+00   -1.6776828E+00
 1.7300    4.4113308E-02    1.6590967E+00   -1.6590967E+00
 1.7400    4.3116504E-02    1.6404081E+00   -1.6404081E+00
 1.7500    4.2129668E-02    1.6213396E+00   -1.6213396E+00
 1.7600    4.1158879E-02    1.6021336E+00   -1.6021336E+00
 1.7700    4.0213634E-02    1.5831779E+00   -1.5831779E+00
 1.7800    3.9297977E-02    1.5646603E+00   -1.5646603E+00
 1.7900    3.8409413E-02    1.5465131E+00   -1.5465131E+00
 1.8000    3.7544576E-02    1.5286290E+00   -1.5286290E+00
 1.8100    3.6705376E-02    1.5111121E+00   -1.5111121E+00
 1.8200    3.5899547E-02    1.4943131E+00   -1.4943131E+00
 1.8300    3.5134329E-02    1.4785762E+00   -1.4785762E+00
 1.8400    3.4407918E-02    1.4638747E+00   -1.4638747E+00
 1.8500    3.3706080E-02    1.4496447E+00   -1.4496447E+00
 1.8600    3.3008173E-02    1.4350177E+00   -1.4350177E+00
 1.8700    3.2299074E-02    1.4193292E+00   -1.4193292E+00
 1.8800    3.1577789E-02    1.4025143E+00   -1.4025143E+00
 1.8900    3.0855990E-02    1.3850739E+00   -1.3850739E+00
 1.9000    3.0148720E-02    1.3676846E+00   -1.3676846E+00
 1.9100    2.9466112E-02    1.3508261E+00   -1.3508261E+00
 1.9200    2.8812264E-02    1.3347186E+00   -1.3347186E+00
 1.9300    2.8189102E-02    1.3194888E+00   -1.3194888E+00
 1.9400    2.7598795E-02    1.3052793E+00   -1.3052793E+00
 1.9500    2.7042073E-02    1.2921682E+00   -1.2921682E+00
 1.9600    2.6515717E-02    1.2800454E+00   -1.2800454E+00
 1.9700    2.6013151E-02    1.2686309E+00   -1.2686309E+00
 1.9800    2.5527522E-02    1.2576184E+00   -1.2576184E+00
 1.9900    2.5053775E-02    1.2467782E+00   -1.2467782E+00
 2.0000    2.4588103E-02    1.2359328E+00   -1.2359328E+00
 2.0100    2.4126587E-02    1.2248922E+00   -1.2248922E+00
 2.0200    2.3665171E-02    1.2134510E+00   -1.2134510E+00
 2.0300    2.3200710E-02    1.2014431E+00   -1.2014431E+00
 2.0400    2.2731257E-02    1.1887586E+00   -1.1887586E+00
 2.0500    2.2255083E-02    1.1752948E+00   -1.1752948E+00
 2.0600    2.1770296E-02    1.1609370E+00   -1.1609370E+00
 2.0700    2.1277388E-02    1.1456946E+00   -1.1456946E+00
 2.0800    2.0784018E-02    1.1299678E+00   -1.1299678E+00
 2.0900    2.0307412E-02    1.1146975E+00   -1.1146975E+00
 2.1000    1.9869540E-02    1.1011241E+00   -1.1011241E+00
 2.1100    1.9485990E-02    1.0901776E+00   -1.0901776E+00
 2.1200    1.9156335E-02    1.0819171E+00   -1.0819171E+00
 2.1300    1.8864055E-02    1.0754844E+00   -1.0754844E+00
 2.1400    1.8586208E-02    1.0696167E+00   -1.0696167E+00
 2.1500    1.8304911E-02    1.0632965E+00   -1.0632965E+00
 2.1600    1.8012517E-02    1.0560677E+00   -1.0560677E+00
 2.1700    1.7709114E-02    1.0479153E+00   -1.0479153E+00
 2.1800    1.7397175E-02    1.0389666E+00   -1.0389666E+00
 2.1900    1.7078513E-02    1.0293146E+00   -1.0293146E+00
 2.2000    1.6754754E-02    1.0190448E+00   -1.0190448E+00
 2.2100    1.6429084E-02    1.0083418E+00   -1.0083418E+00
 2.2200    1.6106611E-02    9.9751627E-01   -9.9751627E-01
 2.2300    1.5792628E-02    9.8690194E-01   -9.8690194E-01
 2.2400    1.5490121E-02    9.7669893E-01   -9.7669893E-01
 2.2500    1.5198589E-02    9.6689243E-01   -9.6689243E-01
 2.2600    1.4915085E-02    9.5730976E-01   -9.5730976E-01
 2.2700    1.4636464E-02    9.4775862E-01   -9.4775862E-01
 2.2800    1.4360938E-02    9.3812857E-01   -9.3812857E-01
 2.2900    1.4088189E-02    9.2840188E-01   -9.2840188E-01
 2.3000    1.3818841E-02    9.1862264E-01   -9.1862264E-01
 2.3100    1.3554236E-02    9.0888485E-01   -9.0888485E-01
 2.3200    1.3296300E-02    8.9932493E-01   -8.9932493E-01
 2.3300    1.3046730E-02    8.9006837E-01   -8.9006837E-01
 2.3400    1.2805764E-02    8.8114436E-01   -8.8114436E-01
 2.3500    1.2571765E-02    8.7245263E-01   -8.7245263E-01
 2.3600    1.2342301E-02    8.6383344E-01   -8.6383344E-01
 2.3700    1.2115852E-02    8.5518585E-01   -8.5518585E-01
 2.3800    1.1892644E-02    8.4652972E-01   -8.4652972E-01
 2.3900    1.1674052E-02    8.3796774E-01   -8.3796774E-01
 2.4000    1.1461315E-02    8.2959626E-01   -8.2959626E-01
 2.4100    1.1254627E-02    8.2143853E-01   -8.2143853E-01
 2.4200    1.1052972E-02    8.1342903E-01   -8.1342903E-01
 2.4300    1.0854460E-02    8.0543525E-01   -8.0543525E-01
 2.4400    1.0656959E-02    7.9730194E-01   -7.9730194E-01
 2.4500    1.0458936E-02    7.8891377E-01   -7.8891377E-01
 2.4600    1.0260243E-02    7.8025707E-01   -7.8025707E-01
 2.4700    1.0062303E-02    7.7143823E-01   -7.7143823E-01
 2.4800    9.8673558E-03    7.6263023E-01   -7.6263023E-01
 2.4900    9.6771586E-03    7.5397408E-01   -7.5397408E-01
 2.5000    9.4920735E-03    7.4550571E-01   -7.4550571E-01
 2.5100    9.3111936E-03    7.3716153E-01   -7.3716153E-01
 2.5200    9.1333116E-03    7.2885179E-01   -7.2885179E-01
 2.5300    8.9578990E-03    7.2053829E-01   -7.2053829E-01
 2.5400    8.7853957E-03    7.1226012E-01   -7.1226012E-01
 2.5500    8.6167636E-03    7.0410009E-01   -7.0410009E-01
 2.5600    8.4527645E-03    6.9612714E-01   -6.9612714E-01
 2.5700    8.2934438E-03    6.8835270E-01   -6.8835270E-01
 2.5800    8.1380217E-03    6.8071939E-01   -6.8071939E-01
 2.5900    7.9851831E-03    6.7312276E-01   -6.7312276E-01
 2.6000    7.8336379E-03    6.6545709E-01   -6.6545709E-01
 2.6100    7.6827016E-03    6.5766518E-01   -6.5766518E-01
 2.6200    7.5325468E-03    6.4976197E-01   -6.4976197E-01
 2.6300    7.3838832E-03    6.4180955E-01   -6.4180955E-01
 2.6400    7.2372286E-03    6.3385512E-01   -6.3385512E-01
 2.6500    7.0923629E-03    6.2588214E-01   -6.2588214E-01
 2.6600    6.9485500E-03    6.1782762E-01   -6.1782762E-01
 2.6700    6.8054950E-03    6.0966619E-01   -6.0966619E-01
 2.6800    6.6642609E-03    6.0149420E-01   -6.0149420E-01
 2.6900    6.5272539E-03    5.9353308E-01   -5.9353308E-01
 2.7000    6.3971174E-03    5.8603252E-01   -5.8603252E-01
 2.7100    6.2752747E-03    5.7913684E-01   -5.7913684E-01
 2.7200    6.1611307E-03    5.7280671E-01   -5.7280671E-01
 2.7300    6.0524191E-03    5.6684478E-01   -5.6684478E-01
 2.7400    5.9463715E-03    5.6100021E-01   -5.6100021E-01
 2.7500    5.8408921E-03    5.5507854E-01   -5.5507854E-01
 2.7600    5.7350283E-03    5.4898894E-01   -5.4898894E-01
 2.7700    5.6286056E-03    5.4271299E-01   -5.4271299E-01
 2.7800    5.5214942E-03    5.3623613E-01   -5.3623613E-01
 2.7900    5.4131438E-03    5.2950228E-01   -5.2950228E-01
 2.8000    5.3027344E-03    5.2242722E-01   -5.2242722E-01
 2.8100    5.1899036E-03    5.1496984E-01   -5.1496984E-01
 2.8200    5.0757317E-03    5.0723211E-01   -5.0723211E-01
 2.8300    4.9633888E-03    4.9952937E-01   -4.9952937E-01
 2.8400    4.8576458E-03    4.9234824E-01   -4.9234824E-01
 2.8500    4.7628067E-03    4.8614132E-01   -4.8614132E-01
 2.8600    4.6797956E-03    4.8102630E-01   -4.8102630E-01
 2.8700    4.6043406E-03    4.7658580E-01   -4.7658580E-01
 2.8800    4.5280811E-03    4.7196417E-01   -4.7196417E-01
 2.8900    4.4425933E-03    4.6627497E-01   -4.6627497E-01
 2.9000    4.3440826E-03    4.5909645E-01   -4.5909645E-01
 2.9100    4.2357649E-03    4.5074165E-01   -4.5074165E-01
 2.9200    4.1263860E-03    4.4212535E-01   -4.4212535E-01
 2.9300    4.0257633E-03    4.3430352E-01   -4.3430352E-01
 2.9400    3.9399684E-03    4.2795417E-01   -4.2795417E-01
 2.9500    3.8688607E-03    4.2309411E-01   -4.2309411E-01
 2.9600    3.8071626E-03    4.1917436E-01   -4.1917436E-01
 2.9700    3.7479835E-03    4.1545159E-01   -4.1545159E-01
 2.9800    3.6862372E-03    4.1136342E-01   -4.1136342E-01
 2.9900    3.6199705E-03    4.0668418E-01   -4.0668418E-01
 3.0000    3.5496356E-03    4.0145433E-01   -4.0145433E-01
 3.0100    3.4767927E-03    3.9584181E-01   -3.9584181E-01
 3.0200    3.4034069E-03    3.9006558E-01   -3.9006558E-01
 3.0300    3.3316275E-03    3.8437184E-01   -3.8437184E-01
 3.0400    3.2633227E-03    3.7898067E-01   -3.7898067E-01
 3.0500    3.1991973E-03    3.7398188E-01   -3.7398188E-01
 3.0600    3.1381597E-03    3.6925616E-01   -3.6925616E-01
 3.0700    3.0776835E-03    3.6451095E-01   -3.6451095E-01
 3.0800    3.0151766E-03    3.5943805E-01   -3.5943805E-01
 3.0900    2.9495890E-03    3.5390633E-01   -3.5390633E-01
 3.1000    2.8822684E-03    3.4807086E-01   -3.4807086E-01
 3.1100    2.8164599E-03    3.4232153E-01   -3.4232153E-01
 3.1200    2.7556399E-03    3.3708662E-01   -3.3708662E-01
 3.1300    2.7016723E-03    3.3260687E-01   -3.3260687E-01
 3.1400    2.6539620E-03    3.2882426E-01   -3.2882426E-01
 3.1500    2.6100504E-03    3.2544670E-01   -3.2544670E-01
 3.1600    2.5670699E-03    3.2212299E-01   -3.2212299E-01
 3.1700    2.5230627E-03    3.1860782E-01   -3.1860782E-01
 3.1800    2.4775546E-03    3.1483814E-01   -3.1483814E-01
 3.1900    2.4313185E-03    3.1090885E-01   -3.1090885E-01
 3.2000    2.3856011E-03    3.0697828E-01   -3.0697828E-01
 3.2100    2.3412525E-03    3.0315741E-01   -3.0315741E-01
 3.2200    2.2982475E-03    2.9944593E-01   -2.9944593E-01
 3.2300    2.2558425E-03    2.9574927E-01   -2.9574927E-01
 3.2400    2.2131791E-03    2.9195536E-01   -2.9195536E-01
 3.2500    2.1698883E-03    2.8801425E-01   -2.8801425E-01
 3.2600    2.1263489E-03    2.8397466E-01   -2.8397466E-01
 3.2700    2.0835025E-03    2.7996220E-01   -2.7996220E-01
 3.2800    2.0423229E-03    2.7610989E-01   -2.7610989E-01
 3.2900    2.0031941E-03    2.7247377E-01   -2.7247377E-01
 3.3000    1.9655894E-03    2.6898654E-01   -2.6898654E-01
 3.3100    1.9283514E-03    2.6549236E-01   -2.6549236E-01
 3.3200    1.8904538E-03    2.6184971E-01   -2.6184971E-01
 3.3300    1.8516857E-03    2.5802726E-01   -2.5802726E-01
 3.3400    1.8127185E-03    2.5411668E-01   -2.5411668E-01
 3.3500    1.7745434E-03    2.5025693E-01   -2.5025693E-01
 3.3600    1.7377911E-03    2.4653921E-01   -2.4653921E-01
