# total charge: 19.000000 
# r(A)     rho (e/A^3)     4*pi*r^2*rho(e/A)  dip  
 0.0000    1.6206750E+01    0.0000000E+00    1.5159807E+02
 0.0100    1.6194812E+01    2.0351001E-02    1.5082162E+02
 0.0200    1.6179718E+01    8.1328135E-02    1.4851490E+02
 0.0300    1.6160821E+01    1.8277457E-01    1.4474460E+02
 0.0400    1.6137414E+01    3.2446197E-01    1.3961819E+02
 0.0500    1.6108710E+01    5.0607005E-01    1.3327875E+02
 0.0600    1.6073814E+01    7.2716223E-01    1.2589819E+02
 0.0700    1.6031800E+01    9.8716154E-01    1.1766933E+02
 0.0800    1.5981871E+01    1.2853383E+00    1.0879745E+02
 0.0900    1.5923531E+01    1.6208180E+00    9.9491577E+01
 0.1000    1.5856639E+01    1.9926040E+00    8.9956271E+01
 0.1100    1.5781320E+01    2.3995983E+00    8.0384229E+01
 0.1200    1.5697813E+01    2.8406093E+00    7.0950092E+01
 0.1300    1.5606347E+01    3.3143458E+00    6.1805719E+01
 0.1400    1.5507077E+01    3.8194064E+00    5.3077031E+01
 0.1500    1.5400095E+01    4.3542742E+00    4.4862412E+01
 0.1600    1.5285478E+01    4.9173242E+00    3.7232593E+01
 0.1700    1.5163337E+01    5.5068403E+00    3.0231809E+01
 0.1800    1.5033823E+01    6.1210272E+00    2.3880033E+01
 0.1900    1.4897084E+01    6.7580024E+00    1.8176007E+01
 0.2000    1.4753208E+01    7.4157713E+00    1.3100796E+01
 0.2100    1.4602203E+01    8.0922042E+00    8.6215623E+00
 0.2200    1.4444023E+01    8.7850331E+00    4.6953122E+00
 0.2300    1.4278608E+01    9.4918616E+00    1.2724128E+00
 0.2400    1.4105916E+01    1.0210186E+01   -1.7002641E+00
 0.2500    1.3925978E+01    1.0937437E+01   -4.2766830E+00
 0.2600    1.3738958E+01    1.1671062E+01   -6.5095335E+00
 0.2700    1.3545195E+01    1.2408596E+01   -8.4486408E+00
 0.2800    1.3345134E+01    1.3147672E+01   -1.0139800E+01
 0.2900    1.3139185E+01    1.3885908E+01   -1.1623945E+01
 0.3000    1.2927572E+01    1.4620740E+01   -1.2936637E+01
 0.3100    1.2710311E+01    1.5349330E+01   -1.4107939E+01
 0.3200    1.2487340E+01    1.6068664E+01   -1.5162710E+01
 0.3300    1.2258742E+01    1.6775816E+01   -1.6121240E+01
 0.3400    1.2024888E+01    1.7468224E+01   -1.6999980E+01
 0.3500    1.1786401E+01    1.8143754E+01   -1.7812135E+01
 0.3600    1.1543951E+01    1.8800497E+01   -1.8567974E+01
 0.3700    1.1298039E+01    1.9436424E+01   -1.9275008E+01
 0.3800    1.1048900E+01    2.0049156E+01   -1.9938216E+01
 0.3900    1.0796577E+01    2.0635983E+01   -2.0560494E+01
 0.4000    1.0541098E+01    2.1194135E+01   -2.1143279E+01
 0.4100    1.0282657E+01    2.1721156E+01   -2.1687236E+01
 0.4200    1.0021733E+01    2.2215254E+01   -2.2192856E+01
 0.4300    9.7590664E+00    2.2675405E+01   -2.2660761E+01
 0.4400    9.4954719E+00    2.3101053E+01   -2.3091575E+01
 0.4500    9.2315669E+00    2.3491476E+01   -2.3485402E+01
 0.4600    8.9675850E+00    2.3845203E+01   -2.3841350E+01
 0.4700    8.7034441E+00    2.4159988E+01   -2.4157568E+01
 0.4800    8.4390457E+00    2.4433500E+01   -2.4431995E+01
 0.4900    8.1745859E+00    2.4664243E+01   -2.4663316E+01
 0.5000    7.9106236E+00    2.4851957E+01   -2.4851392E+01
 0.5100    7.6478732E+00    2.4997173E+01   -2.4996832E+01
 0.5200    7.3869300E+00    2.5100394E+01   -2.5100190E+01
 0.5300    7.1281742E+00    2.5161696E+01   -2.5161575E+01
 0.5400    6.8718873E+00    2.5181026E+01   -2.5180955E+01
 0.5500    6.6184202E+00    2.5158780E+01   -2.5158739E+01
 0.5600    6.3682478E+00    2.5096079E+01   -2.5096055E+01
 0.5700    6.1218950E+00    2.4994557E+01   -2.4994544E+01
 0.5800    5.8798256E+00    2.4855946E+01   -2.4855938E+01
 0.5900    5.6423788E+00    2.4681760E+01   -2.4681756E+01
 0.6000    5.4097684E+00    2.4473216E+01   -2.4473213E+01
 0.6100    5.1821157E+00    2.4231296E+01   -2.4231295E+01
 0.6200    4.9594851E+00    2.3956856E+01   -2.3956856E+01
 0.6300    4.7419144E+00    2.3650737E+01   -2.3650736E+01
 0.6400    4.5294504E+00    2.3313921E+01   -2.3313921E+01
 0.6500    4.3221941E+00    2.2947789E+01   -2.2947789E+01
 0.6600    4.1203530E+00    2.2554446E+01   -2.2554446E+01
 0.6700    3.9242883E+00    2.2137082E+01   -2.2137082E+01
 0.6800    3.7345353E+00    2.1700226E+01   -2.1700226E+01
 0.6900    3.5517370E+00    2.1249506E+01   -2.1249506E+01
 0.7000    3.3764456E+00    2.0790536E+01   -2.0790536E+01
 0.7100    3.2088681E+00    2.0327240E+01   -2.0327240E+01
 0.7200    3.0487631E+00    1.9860882E+01   -1.9860882E+01
 0.7300    2.8956092E+00    1.9390791E+01   -1.9390791E+01
 0.7400    2.7489016E+00    1.8916139E+01   -1.8916139E+01
 0.7500    2.6083007E+00    1.8436991E+01   -1.8436991E+01
 0.7600    2.4735340E+00    1.7953740E+01   -1.7953740E+01
 0.7700    2.3442415E+00    1.7466008E+01   -1.7466008E+01
 0.7800    2.2200056E+00    1.6972786E+01   -1.6972786E+01
 0.7900    2.1006016E+00    1.6474329E+01   -1.6474329E+01
 0.8000    1.9862616E+00    1.5974464E+01   -1.5974464E+01
 0.8100    1.8777010E+00    1.5481261E+01   -1.5481261E+01
 0.8200    1.7758217E+00    1.5005032E+01   -1.5005032E+01
 0.8300    1.6812246E+00    1.4554315E+01   -1.4554315E+01
 0.8400    1.5937873E+00    1.4131843E+01   -1.4131843E+01
 0.8500    1.5125494E+00    1.3732743E+01   -1.3732743E+01
 0.8600    1.4360112E+00    1.3346414E+01   -1.3346414E+01
 0.8700    1.3627310E+00    1.2961596E+01   -1.2961596E+01
 0.8800    1.2918865E+00    1.2571861E+01   -1.2571861E+01
 0.8900    1.2234473E+00    1.2177977E+01   -1.2177977E+01
 0.9000    1.1578833E+00    1.1785817E+01   -1.1785817E+01
 0.9100    1.0956935E+00    1.1402018E+01   -1.1402018E+01
 0.9200    1.0371355E+00    1.1031156E+01   -1.1031156E+01
 0.9300    9.8228997E-01    1.0676170E+01   -1.0676170E+01
 0.9400    9.3125427E-01    1.0340317E+01   -1.0340317E+01
 0.9500    8.8418702E-01    1.0027697E+01   -1.0027697E+01
 0.9600    8.4115074E-01    9.7415073E+00   -9.7415073E+00
 0.9700    8.0194203E-01    9.4819205E+00   -9.4819205E+00
 0.9800    7.6605898E-01    9.2453684E+00   -9.2453684E+00
 0.9900    7.3275520E-01    9.0248327E+00   -9.0248327E+00
 1.0000    7.0109728E-01    8.8102482E+00   -8.8102482E+00
 1.0100    6.7009824E-01    8.5899590E+00   -8.5899590E+00
 1.0200    6.3902494E-01    8.3546452E+00   -8.3546452E+00
 1.0300    6.0775153E-01    8.1023384E+00   -8.1023384E+00
 1.0400    5.7685629E-01    7.8405076E+00   -7.8405076E+00
 1.0500    5.4731106E-01    7.5826792E+00   -7.5826792E+00
 1.0600    5.1995132E-01    7.3414912E+00   -7.3414912E+00
 1.0700    4.9508698E-01    7.1229340E+00   -7.1229340E+00
 1.0800    4.7247696E-01    6.9252907E+00   -6.9252907E+00
 1.0900    4.5160518E-01    6.7425127E+00   -6.7425127E+00
 1.1000    4.3200348E-01    6.5687462E+00   -6.5687462E+00
 1.1100    4.1339404E-01    6.4005904E+00   -6.4005904E+00
 1.1200    3.9561789E-01    6.2362259E+00   -6.2362259E+00
 1.1300    3.7850405E-01    6.0734754E+00   -6.0734754E+00
 1.1400    3.6184911E-01    5.9094501E+00   -5.9094501E+00
 1.1500    3.4551765E-01    5.7421665E+00   -5.7421665E+00
 1.1600    3.2952383E-01    5.5720200E+00   -5.5720200E+00
 1.1700    3.1398475E-01    5.4011985E+00   -5.4011985E+00
 1.1800    2.9899545E-01    5.2316474E+00   -5.2316474E+00
 1.1900    2.8456005E-01    5.0638136E+00   -5.0638136E+00
 1.2000    2.7063291E-01    4.8972577E+00   -4.8972577E+00
 1.2100    2.5719906E-01    4.7320572E+00   -4.7320572E+00
 1.2200    2.4430337E-01    4.5693980E+00   -4.5693980E+00
 1.2300    2.3201807E-01    4.4110492E+00   -4.4110492E+00
 1.2400    2.2040242E-01    4.2586269E+00   -4.2586269E+00
 1.2500    2.0949261E-01    4.1133777E+00   -4.1133777E+00
 1.2600    1.9930823E-01    3.9762730E+00   -3.9762730E+00
 1.2700    1.8984253E-01    3.8477852E+00   -3.8477852E+00
 1.2800    1.8103074E-01    3.7271951E+00   -3.7271951E+00
 1.2900    1.7272920E-01    3.6120608E+00   -3.6120608E+00
 1.3000    1.6474951E-01    3.4988127E+00   -3.4988127E+00
 1.3100    1.5695966E-01    3.3848584E+00   -3.3848584E+00
 1.3200    1.4939718E-01    3.2711475E+00   -3.2711475E+00
 1.3300    1.4229118E-01    3.1629412E+00   -3.1629412E+00
 1.3400    1.3593502E-01    3.0672617E+00   -3.0672617E+00
 1.3500    1.3048029E-01    2.9882871E+00   -2.9882871E+00
 1.3600    1.2581301E-01    2.9242416E+00   -2.9242416E+00
 1.3700    1.2161687E-01    2.8684337E+00   -2.8684337E+00
 1.3800    1.1757448E-01    2.8137215E+00   -2.8137215E+00
 1.3900    1.1355368E-01    2.7570248E+00   -2.7570248E+00
 1.4000    1.0964792E-01    2.7006378E+00   -2.7006378E+00
 1.4100    1.0605198E-01    2.6495180E+00   -2.6495180E+00
 1.4200    1.0287187E-01    2.6066528E+00   -2.6066528E+00
 1.4300    1.0001360E-01    2.5700465E+00   -2.5700465E+00
 1.4400    9.7230525E-02    2.5335967E+00   -2.5335967E+00
 1.4500    9.4281334E-02    2.4909877E+00   -2.4909877E+00
 1.4600    9.1068918E-02    2.4394154E+00   -2.4394154E+00
 1.4700    8.7661256E-02    2.3804125E+00   -2.3804125E+00
 1.4800    8.4197611E-02    2.3175711E+00   -2.3175711E+00
 1.4900    8.0766627E-02    2.2532758E+00   -2.2532758E+00
 1.5000    7.7351590E-02    2.1870647E+00   -2.1870647E+00
 1.5100    7.3878801E-02    2.1168184E+00   -2.1168184E+00
 1.5200    7.0324753E-02    2.0417626E+00   -2.0417626E+00
 1.5300    6.6793939E-02    1.9648517E+00   -1.9648517E+00
 1.5400    6.3502426E-02    1.8925250E+00   -1.8925250E+00
 1.5500    6.0673397E-02    1.8317727E+00   -1.8317727E+00
 1.5600    5.8416497E-02    1.7864652E+00   -1.7864652E+00
 1.5700    5.6676387E-02    1.7555424E+00   -1.7555424E+00
 1.5800    5.5285993E-02    1.7343596E+00   -1.7343596E+00
 1.5900    5.4079790E-02    1.7180631E+00   -1.7180631E+00
 1.6000    5.2978177E-02    1.7043031E+00   -1.7043031E+00
 1.6100    5.1988487E-02    1.6934360E+00   -1.6934360E+00
 1.6200    5.1145329E-02    1.6867312E+00   -1.6867312E+00
 1.6300    5.0452049E-02    1.6844723E+00   -1.6844723E+00
 1.6400    4.9860808E-02    1.6852210E+00   -1.6852210E+00
 1.6500    4.9290214E-02    1.6863140E+00   -1.6863140E+00
 1.6600    4.8665658E-02    1.6851891E+00   -1.6851891E+00
 1.6700    4.7963307E-02    1.6809389E+00   -1.6809389E+00
 1.6800    4.7228227E-02    1.6750588E+00   -1.6750588E+00
 1.6900    4.6542270E-02    1.6704398E+00   -1.6704398E+00
 1.7000    4.5954792E-02    1.6689315E+00   -1.6689315E+00
 1.7100    4.5428327E-02    1.6692786E+00   -1.6692786E+00
 1.7200    4.4847914E-02    1.6672818E+00   -1.6672818E+00
 1.7300    4.4094412E-02    1.6583860E+00   -1.6583860E+00
 1.7400    4.3130885E-02    1.6409552E+00   -1.6409552E+00
 1.7500    4.2038503E-02    1.6178312E+00   -1.6178312E+00
 1.7600    4.0972045E-02    1.5948610E+00   -1.5948610E+00
 1.7700    4.0060632E-02    1.5771543E+00   -1.5771543E+00
 1.7800    3.9321667E-02    1.5656035E+00   -1.5656035E+00
 1.7900    3.8654718E-02    1.5563900E+00   -1.5563900E+00
 1.8000    3.7928417E-02    1.5442571E+00   -1.5442571E+00
 1.8100    3.7097372E-02    1.5272501E+00   -1.5272501E+00
 1.8200    3.6249003E-02    1.5088592E+00   -1.5088592E+00
 1.8300    3.5526689E-02    1.4950881E+00   -1.4950881E+00
 1.8400    3.4981662E-02    1.4882845E+00   -1.4882845E+00
 1.8500    3.4483158E-02    1.4830656E+00   -1.4830656E+00
 1.8600    3.3781141E-02    1.4686221E+00   -1.4686221E+00
 1.8700    3.2682499E-02    1.4361782E+00   -1.4361782E+00
 1.8800    3.1192734E-02    1.3854122E+00   -1.3854122E+00
 1.8900    2.9505238E-02    1.3244409E+00   -1.3244409E+00
 1.9000    2.7861342E-02    1.2639186E+00   -1.2639186E+00
 1.9100    2.6410862E-02    1.2107631E+00   -1.2107631E+00
 1.9200    2.5176932E-02    1.1663130E+00   -1.1663130E+00
 1.9300    2.4119586E-02    1.1290010E+00   -1.1290010E+00
 1.9400    2.3218372E-02    1.0981081E+00   -1.0981081E+00
 1.9500    2.2508360E-02    1.0755310E+00   -1.0755310E+00
 1.9600    2.2060622E-02    1.0649758E+00   -1.0649758E+00
 1.9700    2.1933352E-02    1.0696639E+00   -1.0696639E+00
 1.9800    2.2121960E-02    1.0898428E+00   -1.0898428E+00
 1.9900    2.2531523E-02    1.1212606E+00   -1.1212606E+00
 2.0000    2.2990970E-02    1.1556522E+00   -1.1556522E+00
 2.0100    2.3310878E-02    1.1834791E+00   -1.1834791E+00
 2.0200    2.3357242E-02    1.1976617E+00   -1.1976617E+00
 2.0300    2.3098824E-02    1.1961670E+00   -1.1961670E+00
 2.0400    2.2602276E-02    1.1820133E+00   -1.1820133E+00
 2.0500    2.1982237E-02    1.1608857E+00   -1.1608857E+00
 2.0600    2.1338029E-02    1.1378856E+00   -1.1378856E+00
 2.0700    2.0713496E-02    1.1153315E+00   -1.1153315E+00
 2.0800    2.0101802E-02    1.0928776E+00   -1.0928776E+00
 2.0900    1.9486806E-02    1.0696535E+00   -1.0696535E+00
 2.1000    1.8885100E-02    1.0465687E+00   -1.0465687E+00
 2.1100    1.8354317E-02    1.0268642E+00   -1.0268642E+00
 2.1200    1.7965555E-02    1.0146639E+00   -1.0146639E+00
 2.1300    1.7767323E-02    1.0129571E+00   -1.0129571E+00
 2.1400    1.7766266E-02    1.0224300E+00   -1.0224300E+00
 2.1500    1.7925724E-02    1.0412703E+00   -1.0412703E+00
 2.1600    1.8169093E-02    1.0652477E+00   -1.0652477E+00
 2.1700    1.8384380E-02    1.0878733E+00   -1.0878733E+00
 2.1800    1.8442163E-02    1.1013737E+00   -1.1013737E+00
 2.1900    1.8235905E-02    1.0990701E+00   -1.0990701E+00
 2.2000    1.7729470E-02    1.0783282E+00   -1.0783282E+00
 2.2100    1.6979234E-02    1.0421075E+00   -1.0421075E+00
 2.2200    1.6111314E-02    9.9780750E-01   -9.9780750E-01
 2.2300    1.5267199E-02    9.5406718E-01   -9.5406718E-01
 2.2400    1.4551635E-02    9.1752454E-01   -9.1752454E-01
 2.2500    1.4009885E-02    8.9127036E-01   -8.9127036E-01
 2.2600    1.3638276E-02    8.7535903E-01   -8.7535903E-01
 2.2700    1.3410566E-02    8.6837775E-01   -8.6837775E-01
 2.2800    1.3297105E-02    8.6863367E-01   -8.6863367E-01
 2.2900    1.3267124E-02    8.7429426E-01   -8.7429426E-01
 2.3000    1.3283116E-02    8.8300974E-01   -8.8300974E-01
 2.3100    1.3300596E-02    8.9187689E-01   -8.9187689E-01
 2.3200    1.3275195E-02    8.9789745E-01   -8.9789745E-01
 2.3300    1.3170285E-02    8.9849748E-01   -8.9849748E-01
 2.3400    1.2962814E-02    8.9195073E-01   -8.9195073E-01
 2.3500    1.2651465E-02    8.7798358E-01   -8.7798358E-01
 2.3600    1.2266128E-02    8.5850209E-01   -8.5850209E-01
 2.3700    1.1867266E-02    8.3763963E-01   -8.3763963E-01
 2.3800    1.1525288E-02    8.2038097E-01   -8.2038097E-01
 2.3900    1.1287188E-02    8.1019851E-01   -8.1019851E-01
 2.4000    1.1152957E-02    8.0727666E-01   -8.0727666E-01
 2.4100    1.1079576E-02    8.0866213E-01   -8.0866213E-01
 2.4200    1.1008747E-02    8.1017434E-01   -8.1017434E-01
 2.4300    1.0897248E-02    8.0861029E-01   -8.0861029E-01
 2.4400    1.0731180E-02    8.0285480E-01   -8.0285480E-01
 2.4500    1.0521772E-02    7.9365345E-01   -7.9365345E-01
 2.4600    1.0293477E-02    7.8278446E-01   -7.8278446E-01
 2.4700    1.0074466E-02    7.7237070E-01   -7.7237070E-01
 2.4800    9.8904340E-03    7.6441390E-01   -7.6441390E-01
 2.4900    9.7574386E-03    7.6022892E-01   -7.6022892E-01
 2.5000    9.6736357E-03    7.5976557E-01   -7.5976557E-01
 2.5100    9.6164484E-03    7.6132837E-01   -7.6132837E-01
 2.5200    9.5508467E-03    7.6217170E-01   -7.6217170E-01
 2.5300    9.4462533E-03    7.5981961E-01   -7.5981961E-01
 2.5400    9.2925955E-03    7.5338042E-01   -7.5338042E-01
 2.5500    9.1057875E-03    7.4405962E-01   -7.4405962E-01
 2.5600    8.9184653E-03    7.3447991E-01   -7.3447991E-01
 2.5700    8.7602283E-03    7.2709563E-01   -7.2709563E-01
 2.5800    8.6393617E-03    7.2265487E-01   -7.2265487E-01
 2.5900    8.5389217E-03    7.1980096E-01   -7.1980096E-01
 2.6000    8.4305226E-03    7.1616165E-01   -7.1616165E-01
 2.6100    8.2948610E-03    7.1006808E-01   -7.1006808E-01
 2.6200    8.1314233E-03    7.0142141E-01   -7.0142141E-01
 2.6300    7.9487395E-03    6.9090705E-01   -6.9090705E-01
 2.6400    7.7450702E-03    6.7833321E-01   -6.7833321E-01
 2.6500    7.5005539E-03    6.6190392E-01   -6.6190392E-01
 2.6600    7.1924523E-03    6.3951411E-01   -6.3951411E-01
 2.6700    6.8219493E-03    6.1114023E-01   -6.1114023E-01
 2.6800    6.4273861E-03    5.8011466E-01   -5.8011466E-01
 2.6900    6.0698384E-03    5.5193960E-01   -5.5193960E-01
 2.7000    5.8012667E-03    5.3144732E-01   -5.3144732E-01
 2.7100    5.6390640E-03    5.2042179E-01   -5.2042179E-01
 2.7200    5.5635589E-03    5.1724984E-01   -5.1724984E-01
 2.7300    5.5366613E-03    5.1854102E-01   -5.1854102E-01
 2.7400    5.5256929E-03    5.2131202E-01   -5.2131202E-01
 2.7500    5.5154732E-03    5.2415295E-01   -5.2415295E-01
 2.7600    5.5034567E-03    5.2682161E-01   -5.2682161E-01
 2.7700    5.4872449E-03    5.2908293E-01   -5.2908293E-01
 2.7800    5.4582500E-03    5.3009399E-01   -5.3009399E-01
 2.7900    5.4066169E-03    5.2886383E-01   -5.2886383E-01
 2.8000    5.3310762E-03    5.2521947E-01   -5.2521947E-01
 2.8100    5.2443939E-03    5.2037666E-01   -5.2037666E-01
 2.8200    5.1705426E-03    5.1670682E-01   -5.1670682E-01
 2.8300    5.1358393E-03    5.1688527E-01   -5.1688527E-01
 2.8400    5.1581743E-03    5.2280840E-01   -5.2280840E-01
 2.8500    5.2375942E-03    5.3460305E-01   -5.3460305E-01
 2.8600    5.3512913E-03    5.5004791E-01   -5.5004791E-01
 2.8700    5.4569252E-03    5.6483507E-01   -5.6483507E-01
 2.8800    5.5070649E-03    5.7400415E-01   -5.7400415E-01
 2.8900    5.4713646E-03    5.7425027E-01   -5.7425027E-01
 2.9000    5.3544632E-03    5.6587668E-01   -5.6587668E-01
 2.9100    5.1954480E-03    5.5286468E-01   -5.5286468E-01
 2.9200    5.0453026E-03    5.4058350E-01   -5.4058350E-01
 2.9300    4.9356552E-03    5.3246359E-01   -5.3246359E-01
 2.9400    4.8604552E-03    5.2793623E-01   -5.2793623E-01
 2.9500    4.7837639E-03    5.2314687E-01   -5.2314687E-01
 2.9600    4.6678925E-03    5.1394203E-01   -5.1394203E-01
 2.9700    4.5010193E-03    4.9892312E-01   -4.9892312E-01
 2.9800    4.3040439E-03    4.8030719E-01   -4.8030719E-01
 2.9900    4.1132868E-03    4.6210560E-01   -4.6210560E-01
 3.0000    3.9550329E-03    4.4730368E-01   -4.4730368E-01
 3.0100    3.8325941E-03    4.3635070E-01   -4.3635070E-01
 3.0200    3.7331100E-03    4.2785295E-01   -4.2785295E-01
 3.0300    3.6438440E-03    4.2039244E-01   -4.2039244E-01
 3.0400    3.5622522E-03    4.1369635E-01   -4.1369635E-01
 3.0500    3.4930362E-03    4.0833126E-01   -4.0833126E-01
 3.0600    3.4382000E-03    4.0456085E-01   -4.0456085E-01
 3.0700    3.3912179E-03    4.0164495E-01   -4.0164495E-01
 3.0800    3.3408969E-03    3.9826704E-01   -3.9826704E-01
 3.0900    3.2808765E-03    3.9365585E-01   -3.9365585E-01
 3.1000    3.2158019E-03    3.8834931E-01   -3.8834931E-01
 3.1100    3.1585073E-03    3.8389506E-01   -3.8389506E-01
 3.1200    3.1203454E-03    3.8169961E-01   -3.8169961E-01
 3.1300    3.1023269E-03    3.8193204E-01   -3.8193204E-01
 3.1400    3.0936786E-03    3.8330488E-01   -3.8330488E-01
 3.1500    3.0782254E-03    3.8382334E-01   -3.8382334E-01
 3.1600    3.0434758E-03    3.8190372E-01   -3.8190372E-01
 3.1700    2.9867528E-03    3.7716177E-01   -3.7716177E-01
 3.1800    2.9159055E-03    3.7054209E-01   -3.7054209E-01
 3.1900    2.8451823E-03    3.6383236E-01   -3.6383236E-01
 3.2000    2.7883767E-03    3.5880730E-01   -3.5880730E-01
 3.2100    2.7523492E-03    3.5638832E-01   -3.5638832E-01
 3.2200    2.7342567E-03    3.5625494E-01   -3.5625494E-01
 3.2300    2.7240157E-03    3.5712850E-01   -3.5712850E-01
 3.2400    2.7103720E-03    3.5754342E-01   -3.5754342E-01
 3.2500    2.6870341E-03    3.5665619E-01   -3.5665619E-01
 3.2600    2.6556880E-03    3.5466810E-01   -3.5466810E-01
 3.2700    2.6242076E-03    3.5261726E-01   -3.5261726E-01
 3.2800    2.6004026E-03    3.5155894E-01   -3.5155894E-01
 3.2900    2.5846104E-03    3.5155781E-01   -3.5155781E-01
 3.3000    2.5666841E-03    3.5124502E-01   -3.5124502E-01
 3.3100    2.5310144E-03    3.4846604E-01   -3.4846604E-01
 3.3200    2.4670170E-03    3.4171038E-01   -3.4171038E-01
 3.3300    2.3773070E-03    3.3127113E-01   -3.3127113E-01
 3.3400    2.2769711E-03    3.1919811E-01   -3.1919811E-01
 3.3500    2.1843792E-03    3.0805447E-01   -3.0805447E-01
 3.3600    2.1107000E-03    2.9944352E-01   -2.9944352E-01
