# total charge: 24.000000 
# r(A)     rho (e/A^3)     4*pi*r^2*rho(e/A)  dip  
 0.0000    2.4169358E+01    0.0000000E+00    1.9149229E+02
 0.0100    2.4149657E+01    3.0347354E-02    1.9050688E+02
 0.0200    2.4124754E+01    1.2126424E-01    1.8757923E+02
 0.0300    2.4093587E+01    2.7249205E-01    1.8279366E+02
 0.0400    2.4055009E+01    4.8365465E-01    1.7628601E+02
 0.0500    2.4007743E+01    7.5422550E-01    1.6823713E+02
 0.0600    2.3950355E+01    1.0834885E+00    1.5886432E+02
 0.0700    2.3881364E+01    1.4705002E+00    1.4841139E+02
 0.0800    2.3799526E+01    1.9140714E+00    1.3713787E+02
 0.0900    2.3704105E+01    2.4127840E+00    1.2530814E+02
 0.1000    2.3594960E+01    2.9650301E+00    1.1318092E+02
 0.1100    2.3472393E+01    3.5690498E+00    1.0100000E+02
 0.1200    2.3336885E+01    4.2229433E+00    8.8986363E+01
 0.1300    2.3188884E+01    4.9246619E+00    7.7332262E+01
 0.1400    2.3028713E+01    5.6719920E+00    6.6197192E+01
 0.1500    2.2856592E+01    6.4625490E+00    5.5705897E+01
 0.1600    2.2672709E+01    7.2937897E+00    4.5948211E+01
 0.1700    2.2477292E+01    8.1630358E+00    3.6980521E+01
 0.1800    2.2270619E+01    9.0674914E+00    2.8828585E+01
 0.1900    2.2052965E+01    1.0004239E+01    2.1491352E+01
 0.2000    2.1824549E+01    1.0970215E+01    1.4945449E+01
 0.2100    2.1585500E+01    1.1962186E+01    9.1499397E+00
 0.2200    2.1335899E+01    1.2976757E+01    4.0510473E+00
 0.2300    2.1075844E+01    1.4010399E+01   -4.1342085E-01
 0.2400    2.0805498E+01    1.5059497E+01   -4.3101222E+00
 0.2500    2.0525113E+01    1.6120386E+01   -7.7068021E+00
 0.2600    2.0235012E+01    1.7189373E+01   -1.0669548E+01
 0.2700    1.9935559E+01    1.8262735E+01   -1.3260686E+01
 0.2800    1.9627127E+01    1.9336713E+01   -1.5537296E+01
 0.2900    1.9310077E+01    2.0407503E+01   -1.7550287E+01
 0.3000    1.8984755E+01    2.1471252E+01   -1.9343965E+01
 0.3100    1.8651509E+01    2.2524088E+01   -2.0956015E+01
 0.3200    1.8310709E+01    2.3562153E+01   -2.2417791E+01
 0.3300    1.7962765E+01    2.4581645E+01   -2.3754812E+01
 0.3400    1.7608126E+01    2.5578840E+01   -2.4987374E+01
 0.3500    1.7247263E+01    2.6550098E+01   -2.6131211E+01
 0.3600    1.6880661E+01    2.7491872E+01   -2.7198159E+01
 0.3700    1.6508816E+01    2.8400713E+01   -2.8196818E+01
 0.3800    1.6132234E+01    2.9273292E+01   -2.9133157E+01
 0.3900    1.5751430E+01    3.0106417E+01   -3.0011063E+01
 0.4000    1.5366931E+01    3.0897048E+01   -3.0832809E+01
 0.4100    1.4979265E+01    3.1642303E+01   -3.1599457E+01
 0.4200    1.4588969E+01    3.2339481E+01   -3.2311188E+01
 0.4300    1.4196587E+01    3.2986080E+01   -3.2967584E+01
 0.4400    1.3802671E+01    3.3579820E+01   -3.3567847E+01
 0.4500    1.3407781E+01    3.4118646E+01   -3.4110974E+01
 0.4600    1.3012475E+01    3.4600744E+01   -3.4595876E+01
 0.4700    1.2617310E+01    3.5024533E+01   -3.5021475E+01
 0.4800    1.2222836E+01    3.5388676E+01   -3.5386775E+01
 0.4900    1.1829596E+01    3.5692086E+01   -3.5690916E+01
 0.5000    1.1438126E+01    3.5933933E+01   -3.5933219E+01
 0.5100    1.1048953E+01    3.6113647E+01   -3.6113217E+01
 0.5200    1.0662595E+01    3.6230928E+01   -3.6230670E+01
 0.5300    1.0279558E+01    3.6285745E+01   -3.6285593E+01
 0.5400    9.9003394E+00    3.6278345E+01   -3.6278256E+01
 0.5500    9.5254243E+00    3.6209254E+01   -3.6209202E+01
 0.5600    9.1552836E+00    3.6079268E+01   -3.6079239E+01
 0.5700    8.7903699E+00    3.5889444E+01   -3.5889427E+01
 0.5800    8.4311134E+00    3.5641074E+01   -3.5641064E+01
 0.5900    8.0779191E+00    3.5335675E+01   -3.5335669E+01
 0.6000    7.7311678E+00    3.4974979E+01   -3.4974976E+01
 0.6100    7.3912188E+00    3.4560944E+01   -3.4560942E+01
 0.6200    7.0584119E+00    3.4095749E+01   -3.4095749E+01
 0.6300    6.7330669E+00    3.3581794E+01   -3.3581793E+01
 0.6400    6.4154806E+00    3.3021668E+01   -3.3021668E+01
 0.6500    6.1059242E+00    3.2418132E+01   -3.2418132E+01
 0.6600    5.8046422E+00    3.1774095E+01   -3.1774095E+01
 0.6700    5.5118528E+00    3.1092603E+01   -3.1092603E+01
 0.6800    5.2277486E+00    3.0376825E+01   -3.0376825E+01
 0.6900    4.9524956E+00    2.9630033E+01   -2.9630033E+01
 0.7000    4.6862331E+00    2.8855581E+01   -2.8855581E+01
 0.7100    4.4290728E+00    2.8056880E+01   -2.8056880E+01
 0.7200    4.1810988E+00    2.7237377E+01   -2.7237377E+01
 0.7300    3.9423684E+00    2.6400538E+01   -2.6400538E+01
 0.7400    3.7129125E+00    2.5549831E+01   -2.5549831E+01
 0.7500    3.4927376E+00    2.4688708E+01   -2.4688708E+01
 0.7600    3.2818260E+00    2.3820595E+01   -2.3820595E+01
 0.7700    3.0801371E+00    2.2948873E+01   -2.2948873E+01
 0.7800    2.8876082E+00    2.2076862E+01   -2.2076862E+01
 0.7900    2.7041557E+00    2.1207806E+01   -2.1207806E+01
 0.8000    2.5296751E+00    2.0344855E+01   -2.0344855E+01
 0.8100    2.3640409E+00    1.9491034E+01   -1.9491034E+01
 0.8200    2.2071061E+00    1.8649225E+01   -1.8649225E+01
 0.8300    2.0587044E+00    1.7822148E+01   -1.7822148E+01
 0.8400    1.9186526E+00    1.7012368E+01   -1.7012368E+01
 0.8500    1.7867527E+00    1.6222290E+01   -1.6222290E+01
 0.8600    1.6627923E+00    1.5454138E+01   -1.5454138E+01
 0.8700    1.5465437E+00    1.4709929E+01   -1.4709929E+01
 0.8800    1.4377628E+00    1.3991441E+01   -1.3991441E+01
 0.8900    1.3361913E+00    1.3300210E+01   -1.3300210E+01
 0.9000    1.2415602E+00    1.2637544E+01   -1.2637544E+01
 0.9100    1.1535929E+00    1.2004532E+01   -1.2004532E+01
 0.9200    1.0720064E+00    1.1402049E+01   -1.1402049E+01
 0.9300    9.9651155E-01    1.0830739E+01   -1.0830739E+01
 0.9400    9.2681190E-01    1.0290990E+01   -1.0290990E+01
 0.9500    8.6260396E-01    9.7829205E+00   -9.7829205E+00
 0.9600    8.0357822E-01    9.3063737E+00   -9.3063737E+00
 0.9700    7.4942109E-01    8.8609287E+00   -8.8609287E+00
 0.9800    6.9981708E-01    8.4459121E+00   -8.4459121E+00
 0.9900    6.5445063E-01    8.0604101E+00   -8.0604101E+00
 1.0000    6.1300724E-01    7.7032761E+00   -7.7032761E+00
 1.0100    5.7517409E-01    7.3731306E+00   -7.3731306E+00
 1.0200    5.4064038E-01    7.0683604E+00   -7.0683604E+00
 1.0300    5.0909804E-01    6.7871233E+00   -6.7871233E+00
 1.0400    4.8024349E-01    6.5273670E+00   -6.5273670E+00
 1.0500    4.5378071E-01    6.2868702E+00   -6.2868702E+00
 1.0600    4.2942597E-01    6.0633118E+00   -6.0633118E+00
 1.0700    4.0691424E-01    5.8543719E+00   -5.8543719E+00
 1.0800    3.8600640E-01    5.6578559E+00   -5.6578559E+00
 1.0900    3.6649576E-01    5.4718202E+00   -5.4718202E+00
 1.1000    3.4821182E-01    5.2946681E+00   -5.2946681E+00
 1.1100    3.3101999E-01    5.1251908E+00   -5.1251908E+00
 1.1200    3.1481734E-01    4.9625462E+00   -4.9625462E+00
 1.1300    2.9952570E-01    4.8061889E+00   -4.8061889E+00
 1.1400    2.8508413E-01    4.6557817E+00   -4.6557817E+00
 1.1500    2.7144264E-01    4.5111120E+00   -4.5111120E+00
 1.1600    2.5855766E-01    4.3720311E+00   -4.3720311E+00
 1.1700    2.4638937E-01    4.2384158E+00   -4.2384158E+00
 1.1800    2.3490029E-01    4.1101477E+00   -4.1101477E+00
 1.1900    2.2405454E-01    3.9871037E+00   -3.9871037E+00
 1.2000    2.1381766E-01    3.8691533E+00   -3.8691533E+00
 1.2100    2.0415658E-01    3.7561592E+00   -3.7561592E+00
 1.2200    1.9503963E-01    3.6479796E+00   -3.6479796E+00
 1.2300    1.8643659E-01    3.5444695E+00   -3.5444695E+00
 1.2400    1.7831863E-01    3.4454817E+00   -3.4454817E+00
 1.2500    1.7065821E-01    3.3508662E+00   -3.3508662E+00
 1.2600    1.6342909E-01    3.2604708E+00   -3.2604708E+00
 1.2700    1.5660628E-01    3.1741429E+00   -3.1741429E+00
 1.2800    1.5016609E-01    3.0917308E+00   -3.0917308E+00
 1.2900    1.4408610E-01    3.0130849E+00   -3.0130849E+00
 1.3000    1.3834509E-01    2.9380577E+00   -2.9380577E+00
 1.3100    1.3292294E-01    2.8665030E+00   -2.8665030E+00
 1.3200    1.2780057E-01    2.7982758E+00   -2.7982758E+00
 1.3300    1.2295990E-01    2.7332330E+00   -2.7332330E+00
 1.3400    1.1838383E-01    2.6712336E+00   -2.6712336E+00
 1.3500    1.1405619E-01    2.6121390E+00   -2.6121390E+00
 1.3600    1.0996172E-01    2.5558137E+00   -2.5558137E+00
 1.3700    1.0608601E-01    2.5021257E+00   -2.5021257E+00
 1.3800    1.0241554E-01    2.4509469E+00   -2.4509469E+00
 1.3900    9.8937583E-02    2.4021535E+00   -2.4021535E+00
 1.4000    9.5640204E-02    2.3556265E+00   -2.3556265E+00
 1.4100    9.2512186E-02    2.3112506E+00   -2.3112506E+00
 1.4200    8.9542973E-02    2.2689141E+00   -2.2689141E+00
 1.4300    8.6722632E-02    2.2285090E+00   -2.2285090E+00
 1.4400    8.4041828E-02    2.1899305E+00   -2.1899305E+00
 1.4500    8.1491807E-02    2.1530783E+00   -2.1530783E+00
 1.4600    7.9064377E-02    2.1178560E+00   -2.1178560E+00
 1.4700    7.6751888E-02    2.0841722E+00   -2.0841722E+00
 1.4800    7.4547209E-02    2.0519401E+00   -2.0519401E+00
 1.4900    7.2443688E-02    2.0210774E+00   -2.0210774E+00
 1.5000    7.0435122E-02    1.9915061E+00   -1.9915061E+00
 1.5100    6.8515719E-02    1.9631522E+00   -1.9631522E+00
 1.5200    6.6680080E-02    1.9359456E+00   -1.9359456E+00
 1.5300    6.4923172E-02    1.9098201E+00   -1.9098201E+00
 1.5400    6.3240295E-02    1.8847128E+00   -1.8847128E+00
 1.5500    6.1627056E-02    1.8605643E+00   -1.8605643E+00
 1.5600    6.0079359E-02    1.8373181E+00   -1.8373181E+00
 1.5700    5.8593389E-02    1.8149212E+00   -1.8149212E+00
 1.5800    5.7165609E-02    1.7933245E+00   -1.7933245E+00
 1.5900    5.5792738E-02    1.7724818E+00   -1.7724818E+00
 1.6000    5.4471725E-02    1.7523504E+00   -1.7523504E+00
 1.6100    5.3199729E-02    1.7328902E+00   -1.7328902E+00
 1.6200    5.1974094E-02    1.7140632E+00   -1.7140632E+00
 1.6300    5.0792339E-02    1.6958338E+00   -1.6958338E+00
 1.6400    4.9652138E-02    1.6781683E+00   -1.6781683E+00
 1.6500    4.8551313E-02    1.6610348E+00   -1.6610348E+00
 1.6600    4.7487821E-02    1.6444031E+00   -1.6444031E+00
 1.6700    4.6459744E-02    1.6282445E+00   -1.6282445E+00
 1.6800    4.5465283E-02    1.6125320E+00   -1.6125320E+00
 1.6900    4.4502747E-02    1.5972397E+00   -1.5972397E+00
 1.7000    4.3570545E-02    1.5823433E+00   -1.5823433E+00
 1.7100    4.2667177E-02    1.5678193E+00   -1.5678193E+00
 1.7200    4.1791226E-02    1.5536453E+00   -1.5536453E+00
 1.7300    4.0941347E-02    1.5397996E+00   -1.5397996E+00
 1.7400    4.0116273E-02    1.5262615E+00   -1.5262615E+00
 1.7500    3.9314804E-02    1.5130110E+00   -1.5130110E+00
 1.7600    3.8535812E-02    1.5000292E+00   -1.5000292E+00
 1.7700    3.7778230E-02    1.4872980E+00   -1.4872980E+00
 1.7800    3.7041046E-02    1.4747999E+00   -1.4747999E+00
 1.7900    3.6323299E-02    1.4625180E+00   -1.4625180E+00
 1.8000    3.5624074E-02    1.4504356E+00   -1.4504356E+00
 1.8100    3.4942505E-02    1.4385371E+00   -1.4385371E+00
 1.8200    3.4277776E-02    1.4268071E+00   -1.4268071E+00
 1.8300    3.3629112E-02    1.4152313E+00   -1.4152313E+00
 1.8400    3.2995785E-02    1.4037959E+00   -1.4037959E+00
 1.8500    3.2377109E-02    1.3924877E+00   -1.3924877E+00
 1.8600    3.1772440E-02    1.3812946E+00   -1.3812946E+00
 1.8700    3.1181176E-02    1.3702051E+00   -1.3702051E+00
 1.8800    3.0602751E-02    1.3592084E+00   -1.3592084E+00
 1.8900    3.0036634E-02    1.3482944E+00   -1.3482944E+00
 1.9000    2.9482323E-02    1.3374537E+00   -1.3374537E+00
 1.9100    2.8939349E-02    1.3266775E+00   -1.3266775E+00
 1.9200    2.8407280E-02    1.3159578E+00   -1.3159578E+00
 1.9300    2.7885720E-02    1.3052880E+00   -1.3052880E+00
 1.9400    2.7374310E-02    1.2946623E+00   -1.2946623E+00
 1.9500    2.6872716E-02    1.2840757E+00   -1.2840757E+00
 1.9600    2.6380620E-02    1.2735236E+00   -1.2735236E+00
 1.9700    2.5897725E-02    1.2630017E+00   -1.2630017E+00
 1.9800    2.5423750E-02    1.2525061E+00   -1.2525061E+00
 1.9900    2.4958443E-02    1.2420341E+00   -1.2420341E+00
 2.0000    2.4501578E-02    1.2315836E+00   -1.2315836E+00
 2.0100    2.4052950E-02    1.2211537E+00   -1.2211537E+00
 2.0200    2.3612361E-02    1.2107431E+00   -1.2107431E+00
 2.0300    2.3179619E-02    1.2003509E+00   -1.2003509E+00
 2.0400    2.2754534E-02    1.1899758E+00   -1.1899758E+00
 2.0500    2.2336926E-02    1.1796169E+00   -1.1796169E+00
 2.0600    2.1926635E-02    1.1692740E+00   -1.1692740E+00
 2.0700    2.1523515E-02    1.1589475E+00   -1.1589475E+00
 2.0800    2.1127440E-02    1.1486386E+00   -1.1486386E+00
 2.0900    2.0738300E-02    1.1383494E+00   -1.1383494E+00
 2.1000    2.0355996E-02    1.1280823E+00   -1.1280823E+00
 2.1100    1.9980432E-02    1.1178400E+00   -1.1178400E+00
 2.1200    1.9611512E-02    1.1076248E+00   -1.1076248E+00
 2.1300    1.9249127E-02    1.0974383E+00   -1.0974383E+00
 2.1400    1.8893156E-02    1.0872813E+00   -1.0872813E+00
 2.1500    1.8543468E-02    1.0771539E+00   -1.0771539E+00
 2.1600    1.8199924E-02    1.0670553E+00   -1.0670553E+00
 2.1700    1.7862386E-02    1.0569849E+00   -1.0569849E+00
 2.1800    1.7530721E-02    1.0469420E+00   -1.0469420E+00
 2.1900    1.7204810E-02    1.0369265E+00   -1.0369265E+00
 2.2000    1.6884544E-02    1.0269388E+00   -1.0269388E+00
 2.2100    1.6569825E-02    1.0169798E+00   -1.0169798E+00
 2.2200    1.6260559E-02    1.0070506E+00   -1.0070506E+00
 2.2300    1.5956654E-02    9.9715213E-01   -9.9715213E-01
 2.2400    1.5658015E-02    9.8728516E-01   -9.8728516E-01
 2.2500    1.5364545E-02    9.7745009E-01   -9.7745009E-01
 2.2600    1.5076143E-02    9.6764708E-01   -9.6764708E-01
 2.2700    1.4792710E-02    9.5787606E-01   -9.5787606E-01
 2.2800    1.4514143E-02    9.4813673E-01   -9.4813673E-01
 2.2900    1.4240339E-02    9.3842844E-01   -9.3842844E-01
 2.3000    1.3971190E-02    9.2875024E-01   -9.2875024E-01
 2.3100    1.3706590E-02    9.1910102E-01   -9.1910102E-01
 2.3200    1.3446437E-02    9.0947978E-01   -9.0947978E-01
 2.3300    1.3190637E-02    8.9988598E-01   -8.9988598E-01
 2.3400    1.2939109E-02    8.9031962E-01   -8.9031962E-01
 2.3500    1.2691782E-02    8.8078150E-01   -8.8078150E-01
 2.3600    1.2448602E-02    8.7127337E-01   -8.7127337E-01
 2.3700    1.2209528E-02    8.6179793E-01   -8.6179793E-01
 2.3800    1.1974527E-02    8.5235822E-01   -8.5235822E-01
 2.3900    1.1743556E-02    8.4295675E-01   -8.4295675E-01
 2.4000    1.1516557E-02    8.3359479E-01   -8.3359479E-01
 2.4100    1.1293455E-02    8.2427246E-01   -8.2427246E-01
 2.4200    1.1074177E-02    8.1498955E-01   -8.1498955E-01
 2.4300    1.0858654E-02    8.0574649E-01   -8.0574649E-01
 2.4400    1.0646839E-02    7.9654481E-01   -7.9654481E-01
 2.4500    1.0438694E-02    7.8738694E-01   -7.8738694E-01
 2.4600    1.0234189E-02    7.7827579E-01   -7.7827579E-01
 2.4700    1.0033296E-02    7.6921438E-01   -7.6921438E-01
 2.4800    9.8359848E-03    7.6020562E-01   -7.6020562E-01
 2.4900    9.6422210E-03    7.5125200E-01   -7.5125200E-01
 2.5000    9.4519596E-03    7.4235517E-01   -7.4235517E-01
 2.5100    9.2651428E-03    7.3351572E-01   -7.3351572E-01
 2.5200    9.0817035E-03    7.2473338E-01   -7.2473338E-01
 2.5300    8.9015763E-03    7.1600792E-01   -7.1600792E-01
 2.5400    8.7247085E-03    7.0734001E-01   -7.0734001E-01
 2.5500    8.5510659E-03    6.9873175E-01   -6.9873175E-01
 2.5600    8.3806282E-03    6.9018636E-01   -6.9018636E-01
 2.5700    8.2133755E-03    6.8170706E-01   -6.8170706E-01
 2.5800    8.0492739E-03    6.7329592E-01   -6.7329592E-01
 2.5900    7.8882710E-03    6.6495341E-01   -6.6495341E-01
 2.6000    7.7303029E-03    6.5667892E-01   -6.5667892E-01
 2.6100    7.5753082E-03    6.4847193E-01   -6.4847193E-01
 2.6200    7.4232350E-03    6.4033266E-01   -6.4033266E-01
 2.6300    7.2740360E-03    6.3226160E-01   -6.3226160E-01
 2.6400    7.1276558E-03    6.2425846E-01   -6.2425846E-01
 2.6500    6.9840269E-03    6.1632178E-01   -6.1632178E-01
 2.6600    6.8430813E-03    6.0844992E-01   -6.0844992E-01
 2.6700    6.7047702E-03    6.0064281E-01   -6.0064281E-01
 2.6800    6.5690732E-03    5.9290287E-01   -5.9290287E-01
 2.6900    6.4359865E-03    5.8523400E-01   -5.8523400E-01
 2.7000    6.3054986E-03    5.7763942E-01   -5.7763942E-01
 2.7100    6.1775718E-03    5.7011996E-01   -5.7011996E-01
 2.7200    6.0521420E-03    5.6267391E-01   -5.6267391E-01
 2.7300    5.9291356E-03    5.5529855E-01   -5.5529855E-01
 2.7400    5.8084880E-03    5.4799184E-01   -5.4799184E-01
 2.7500    5.6901503E-03    5.4075306E-01   -5.4075306E-01
 2.7600    5.5740801E-03    5.3358208E-01   -5.3358208E-01
 2.7700    5.4602305E-03    5.2647818E-01   -5.2647818E-01
 2.7800    5.3485463E-03    5.1943979E-01   -5.1943979E-01
 2.7900    5.2389737E-03    5.1246533E-01   -5.1246533E-01
 2.8000    5.1314714E-03    5.0555433E-01   -5.0555433E-01
 2.8100    5.0260163E-03    4.9870807E-01   -4.9870807E-01
 2.8200    4.9225988E-03    4.9192911E-01   -4.9192911E-01
 2.8300    4.8212125E-03    4.8522035E-01   -4.8522035E-01
 2.8400    4.7218422E-03    4.7858382E-01   -4.7858382E-01
 2.8500    4.6244540E-03    4.7201962E-01   -4.7201962E-01
 2.8600    4.5289892E-03    4.6552523E-01   -4.6552523E-01
 2.8700    4.4353667E-03    4.5909566E-01   -4.5909566E-01
 2.8800    4.3434988E-03    4.5272507E-01   -4.5272507E-01
 2.8900    4.2533191E-03    4.4640959E-01   -4.4640959E-01
 2.9000    4.1648051E-03    4.4014984E-01   -4.4014984E-01
 2.9100    4.0779791E-03    4.3395114E-01   -4.3395114E-01
 2.9200    3.9928783E-03    4.2782055E-01   -4.2782055E-01
 2.9300    3.9095145E-03    4.2176247E-01   -4.2176247E-01
 2.9400    3.8278505E-03    4.1577607E-01   -4.1577607E-01
 2.9500    3.7478123E-03    4.0985641E-01   -4.0985641E-01
 2.9600    3.6693282E-03    4.0399859E-01   -4.0399859E-01
 2.9700    3.5923641E-03    3.9820170E-01   -3.9820170E-01
 2.9800    3.5169295E-03    3.9246962E-01   -3.9246962E-01
 2.9900    3.4430515E-03    3.8680828E-01   -3.8680828E-01
 3.0000    3.3707393E-03    3.8122163E-01   -3.8122163E-01
 3.0100    3.2999668E-03    3.7570972E-01   -3.7570972E-01
 3.0200    3.2306850E-03    3.7026987E-01   -3.7026987E-01
 3.0300    3.1628462E-03    3.6489944E-01   -3.6489944E-01
 3.0400    3.0964191E-03    3.5959759E-01   -3.5959759E-01
 3.0500    3.0313841E-03    3.5436475E-01   -3.5436475E-01
 3.0600    2.9677175E-03    3.4920084E-01   -3.4920084E-01
 3.0700    2.9053820E-03    3.4410411E-01   -3.4410411E-01
 3.0800    2.8443324E-03    3.3907178E-01   -3.3907178E-01
 3.0900    2.7845306E-03    3.3410181E-01   -3.3410181E-01
 3.1000    2.7259569E-03    3.2919425E-01   -3.2919425E-01
 3.1100    2.6686062E-03    3.2435092E-01   -3.2435092E-01
 3.1200    2.6124725E-03    3.1957351E-01   -3.1957351E-01
 3.1300    2.5575332E-03    3.1486169E-01   -3.1486169E-01
 3.1400    2.5037449E-03    3.1021246E-01   -3.1021246E-01
 3.1500    2.4510531E-03    3.0562135E-01   -3.0562135E-01
 3.1600    2.3994088E-03    3.0108442E-01   -3.0108442E-01
 3.1700    2.3487815E-03    2.9659991E-01   -2.9659991E-01
 3.1800    2.2991617E-03    2.9216865E-01   -2.9216865E-01
 3.1900    2.2505536E-03    2.8779324E-01   -2.8779324E-01
 3.2000    2.2029615E-03    2.8347628E-01   -2.8347628E-01
 3.2100    2.1563771E-03    2.7921878E-01   -2.7921878E-01
 3.2200    2.1107739E-03    2.7501940E-01   -2.7501940E-01
 3.2300    2.0661131E-03    2.7087505E-01   -2.7087505E-01
 3.2400    2.0223554E-03    2.6678252E-01   -2.6678252E-01
 3.2500    1.9794734E-03    2.6274003E-01   -2.6274003E-01
 3.2600    1.9374566E-03    2.5874803E-01   -2.5874803E-01
 3.2700    1.8963067E-03    2.5480852E-01   -2.5480852E-01
 3.2800    1.8560222E-03    2.5092314E-01   -2.5092314E-01
 3.2900    1.8165831E-03    2.4709101E-01   -2.4709101E-01
 3.3000    1.7779456E-03    2.4330790E-01   -2.4330790E-01
 3.3100    1.7400555E-03    2.3956807E-01   -2.3956807E-01
 3.3200    1.7028741E-03    2.3586775E-01   -2.3586775E-01
 3.3300    1.6663966E-03    2.3220775E-01   -2.3220775E-01
 3.3400    1.6306482E-03    2.2859308E-01   -2.2859308E-01
 3.3500    1.5956602E-03    2.2502972E-01   -2.2502972E-01
 3.3600    1.5614444E-03    2.2152102E-01   -2.2152102E-01
