# total charge: 5.000000 
# r(A)     rho (e/A^3)     4*pi*r^2*rho(e/A)  dip  
 0.0000    4.3459655E-01    0.0000000E+00    3.9894228E+01
 0.0100    4.3424847E-01    5.4569272E-04    3.9694709E+01
 0.0200    4.3380959E-01    2.1805648E-03    3.9102089E+01
 0.0300    4.3326268E-01    4.9000855E-03    3.8133881E+01
 0.0400    4.3259038E-01    8.6977457E-03    3.6818316E+01
 0.0500    4.3177484E-01    1.3564607E-02    3.5192968E+01
 0.0600    4.3079746E-01    1.9488818E-02    3.3302971E+01
 0.0700    4.2964082E-01    2.6455227E-02    3.1198938E+01
 0.0800    4.2829321E-01    3.4445384E-02    2.8934710E+01
 0.0900    4.2675320E-01    4.3438185E-02    2.6565087E+01
 0.1000    4.2503097E-01    5.3410967E-02    2.4143661E+01
 0.1100    4.2314531E-01    6.4340550E-02    2.1720877E+01
 0.1200    4.2111884E-01    7.6203870E-02    1.9342402E+01
 0.1300    4.1897404E-01    8.8978214E-02    1.7047881E+01
 0.1400    4.1673171E-01    1.0264138E-01    1.4870105E+01
 0.1500    4.1441126E-01    1.1717202E-01    1.2834588E+01
 0.1600    4.1203176E-01    1.3255024E-01    1.0959533E+01
 0.1700    4.0961271E-01    1.4875827E-01    9.2561495E+00
 0.1800    4.0717397E-01    1.6578105E-01    7.7292348E+00
 0.1900    4.0473503E-01    1.8360642E-01    6.3779751E+00
 0.2000    4.0231424E-01    2.0222519E-01    5.1968715E+00
 0.2100    3.9992858E-01    2.2163120E-01    4.1767284E+00
 0.2200    3.9759449E-01    2.4182187E-01    3.3056374E+00
 0.2300    3.9532909E-01    2.6279936E-01    2.5699044E+00
 0.2400    3.9315045E-01    2.8457131E-01    1.9548817E+00
 0.2500    3.9107602E-01    3.0715038E-01    1.4456797E+00
 0.2600    3.8911972E-01    3.3055201E-01    1.0277449E+00
 0.2700    3.8729010E-01    3.5479198E-01    6.8730151E-01
 0.2800    3.8559146E-01    3.7988604E-01    4.1165912E-01
 0.2900    3.8402761E-01    4.0585258E-01    1.8940066E-01
 0.3000    3.8260575E-01    4.3271691E-01    1.0467934E-02
 0.3100    3.8133787E-01    4.6051437E-01   -1.3383247E-01
 0.3200    3.8023906E-01    4.8929023E-01   -2.5088141E-01
 0.3300    3.7932373E-01    5.1909609E-01   -3.4683919E-01
 0.3400    3.7860157E-01    5.4998407E-01   -4.2676215E-01
 0.3500    3.7807498E-01    5.8200122E-01   -4.9473295E-01
 0.3600    3.7773924E-01    6.1518675E-01   -5.5399655E-01
 0.3700    3.7758546E-01    6.4957391E-01   -6.0709588E-01
 0.3800    3.7760492E-01    6.8519582E-01   -6.5600112E-01
 0.3900    3.7779251E-01    7.2209181E-01   -7.0222626E-01
 0.4000    3.7814670E-01    7.6030904E-01   -7.4692602E-01
 0.4100    3.7866512E-01    7.9989480E-01   -7.9096864E-01
 0.4200    3.7933774E-01    8.4088091E-01   -8.3498661E-01
 0.4300    3.8014316E-01    8.8327096E-01   -8.7941744E-01
 0.4400    3.8105318E-01    9.2704499E-01   -9.2455075E-01
 0.4500    3.8204483E-01    9.7218568E-01   -9.7058731E-01
 0.4600    3.8311105E-01    1.0187091E+00   -1.0176951E+00
 0.4700    3.8426006E-01    1.0666718E+00   -1.0660348E+00
 0.4800    3.8550154E-01    1.1161395E+00   -1.1157433E+00
 0.4900    3.8682986E-01    1.1671375E+00   -1.1668936E+00
 0.5000    3.8821891E-01    1.2196257E+00   -1.2194770E+00
 0.5100    3.8963409E-01    1.2735241E+00   -1.2734344E+00
 0.5200    3.9105155E-01    1.3287723E+00   -1.3287187E+00
 0.5300    3.9246719E-01    1.3853674E+00   -1.3853357E+00
 0.5400    3.9388564E-01    1.4433363E+00   -1.4433177E+00
 0.5500    3.9529676E-01    1.5026523E+00   -1.5026415E+00
 0.5600    3.9665907E-01    1.5631596E+00   -1.5631534E+00
 0.5700    3.9790588E-01    1.6245756E+00   -1.6245721E+00
 0.5800    3.9897231E-01    1.6865864E+00   -1.6865844E+00
 0.5900    3.9982481E-01    1.7489751E+00   -1.7489740E+00
 0.6000    4.0047219E-01    1.8116935E+00   -1.8116929E+00
 0.6100    4.0095054E-01    1.8748233E+00   -1.8748229E+00
 0.6200    4.0129353E-01    1.9384536E+00   -1.9384534E+00
 0.6300    4.0150857E-01    2.0025611E+00   -2.0025611E+00
 0.6400    4.0157335E-01    2.0669725E+00   -2.0669724E+00
 0.6500    4.0145193E-01    2.1314254E+00   -2.1314253E+00
 0.6600    4.0111640E-01    2.1956755E+00   -2.1956755E+00
 0.6700    4.0055880E-01    2.2595697E+00   -2.2595697E+00
 0.6800    3.9978838E-01    2.3230463E+00   -2.3230463E+00
 0.6900    3.9881948E-01    2.3860768E+00   -2.3860768E+00
 0.7000    3.9765863E-01    2.4485916E+00   -2.4485916E+00
 0.7100    3.9629737E-01    2.5104279E+00   -2.5104279E+00
 0.7200    3.9471475E-01    2.5713324E+00   -2.5713324E+00
 0.7300    3.9288858E-01    2.6310251E+00   -2.6310251E+00
 0.7400    3.9080679E-01    2.6892762E+00   -2.6892762E+00
 0.7500    3.8846877E-01    2.7459239E+00   -2.7459239E+00
 0.7600    3.8587567E-01    2.8008151E+00   -2.8008151E+00
 0.7700    3.8302090E-01    2.8537359E+00   -2.8537359E+00
 0.7800    3.7989283E-01    2.9044250E+00   -2.9044250E+00
 0.7900    3.7649009E-01    2.9526882E+00   -2.9526882E+00
 0.8000    3.7283673E-01    2.9985309E+00   -2.9985309E+00
 0.8100    3.6898342E-01    3.0421929E+00   -3.0421929E+00
 0.8200    3.6499074E-01    3.0840359E+00   -3.0840359E+00
 0.8300    3.6090403E-01    3.1243364E+00   -3.1243364E+00
 0.8400    3.5673424E-01    3.1631023E+00   -3.1631023E+00
 0.8500    3.5245553E-01    3.2000152E+00   -3.2000152E+00
 0.8600    3.4802129E-01    3.2345404E+00   -3.2345404E+00
 0.8700    3.4339081E-01    3.2661568E+00   -3.2661568E+00
 0.8800    3.3855219E-01    3.2945859E+00   -3.2945859E+00
 0.8900    3.3352815E-01    3.3198799E+00   -3.3198799E+00
 0.9000    3.2836290E-01    3.3423272E+00   -3.3423272E+00
 0.9100    3.2310192E-01    3.3622669E+00   -3.3622669E+00
 0.9200    3.1777978E-01    3.3799617E+00   -3.3799617E+00
 0.9300    3.1242159E-01    3.3956022E+00   -3.3956022E+00
 0.9400    3.0705037E-01    3.4093784E+00   -3.4093784E+00
 0.9500    3.0168979E-01    3.4215090E+00   -3.4215090E+00
 0.9600    2.9635965E-01    3.4321907E+00   -3.4321907E+00
 0.9700    2.9107046E-01    3.4415293E+00   -3.4415293E+00
 0.9800    2.8582249E-01    3.4495180E+00   -3.4495180E+00
 0.9900    2.8060789E-01    3.4560509E+00   -3.4560509E+00
 1.0000    2.7541264E-01    3.4609373E+00   -3.4609373E+00
 1.0100    2.7022029E-01    3.4639417E+00   -3.4639417E+00
 1.0200    2.6502050E-01    3.4648918E+00   -3.4648918E+00
 1.0300    2.5981921E-01    3.4638220E+00   -3.4638220E+00
 1.0400    2.5464159E-01    3.4610341E+00   -3.4610341E+00
 1.0500    2.4952327E-01    3.4570011E+00   -3.4570011E+00
 1.0600    2.4449528E-01    3.4521692E+00   -3.4521692E+00
 1.0700    2.3957310E-01    3.4467951E+00   -3.4467951E+00
 1.0800    2.3475594E-01    3.4409152E+00   -3.4409152E+00
 1.0900    2.3003452E-01    3.4344395E+00   -3.4344395E+00
 1.1000    2.2540007E-01    3.4272776E+00   -3.4272776E+00
 1.1100    2.2084861E-01    3.4194045E+00   -3.4194045E+00
 1.1200    2.1637917E-01    3.4108401E+00   -3.4108401E+00
 1.1300    2.1199025E-01    3.4015952E+00   -3.4015952E+00
 1.1400    2.0767879E-01    3.3916553E+00   -3.3916553E+00
 1.1500    2.0344250E-01    3.3810159E+00   -3.3810159E+00
 1.1600    1.9928203E-01    3.3697213E+00   -3.3697213E+00
 1.1700    1.9520018E-01    3.3578539E+00   -3.3578539E+00
 1.1800    1.9119898E-01    3.3454879E+00   -3.3454879E+00
 1.1900    1.8727793E-01    3.3326553E+00   -3.3326553E+00
 1.2000    1.8343474E-01    3.3193568E+00   -3.3193568E+00
 1.2100    1.7966724E-01    3.3055939E+00   -3.3055939E+00
 1.2200    1.7597431E-01    3.2913859E+00   -3.2913859E+00
 1.2300    1.7235536E-01    3.2767618E+00   -3.2767618E+00
 1.2400    1.6880955E-01    3.2617468E+00   -3.2617468E+00
 1.2500    1.6533565E-01    3.2463579E+00   -3.2463579E+00
 1.2600    1.6193219E-01    3.2306071E+00   -3.2306071E+00
 1.2700    1.5859746E-01    3.2145008E+00   -3.2145008E+00
 1.2800    1.5532898E-01    3.1980282E+00   -3.1980282E+00
 1.2900    1.5212312E-01    3.1811527E+00   -3.1811527E+00
 1.3000    1.4897563E-01    3.1638201E+00   -3.1638201E+00
 1.3100    1.4588323E-01    3.1459935E+00   -3.1459935E+00
 1.3200    1.4284562E-01    3.1276969E+00   -3.1276969E+00
 1.3300    1.3986584E-01    3.1090293E+00   -3.1090293E+00
 1.3400    1.3694815E-01    3.0901221E+00   -3.0901221E+00
 1.3500    1.3409443E-01    3.0710588E+00   -3.0710588E+00
 1.3600    1.3130197E-01    3.0518201E+00   -3.0518201E+00
 1.3700    1.2856449E-01    3.0322990E+00   -3.0322990E+00
 1.3800    1.2587549E-01    3.0123763E+00   -3.0123763E+00
 1.3900    1.2323156E-01    2.9919987E+00   -2.9919987E+00
 1.4000    1.2063308E-01    2.9712032E+00   -2.9712032E+00
 1.4100    1.1808238E-01    2.9500758E+00   -2.9500758E+00
 1.4200    1.1558059E-01    2.9286769E+00   -2.9286769E+00
 1.4300    1.1312584E-01    2.9069914E+00   -2.9069914E+00
 1.4400    1.1071385E-01    2.8849401E+00   -2.8849401E+00
 1.4500    1.0834040E-01    2.8624393E+00   -2.8624393E+00
 1.4600    1.0600343E-01    2.8394583E+00   -2.8394583E+00
 1.4700    1.0370342E-01    2.8160323E+00   -2.8160323E+00
 1.4800    1.0144198E-01    2.7922288E+00   -2.7922288E+00
 1.4900    9.9220039E-02    2.7681001E+00   -2.7681001E+00
 1.5000    9.7037112E-02    2.7436597E+00   -2.7436597E+00
 1.5100    9.4891895E-02    2.7188978E+00   -2.7188978E+00
 1.5200    9.2783681E-02    2.6938204E+00   -2.6938204E+00
 1.5300    9.0713338E-02    2.6684795E+00   -2.6684795E+00
 1.5400    8.8683049E-02    2.6429681E+00   -2.6429681E+00
 1.5500    8.6694987E-02    2.6173828E+00   -2.6173828E+00
 1.5600    8.4749873E-02    2.5917799E+00   -2.5917799E+00
 1.5700    8.2846458E-02    2.5661564E+00   -2.5661564E+00
 1.5800    8.0982258E-02    2.5404691E+00   -2.5404691E+00
 1.5900    7.9154933E-02    2.5146763E+00   -2.5146763E+00
 1.6000    7.7363258E-02    2.4887690E+00   -2.4887690E+00
 1.6100    7.5607076E-02    2.4627711E+00   -2.4627711E+00
 1.6200    7.3886549E-02    2.4367180E+00   -2.4367180E+00
 1.6300    7.2201450E-02    2.4106324E+00   -2.4106324E+00
 1.6400    7.0550925E-02    2.3845162E+00   -2.3845162E+00
 1.6500    6.8933696E-02    2.3583558E+00   -2.3583558E+00
 1.6600    6.7348504E-02    2.3321366E+00   -2.3321366E+00
 1.6700    6.5794581E-02    2.3058600E+00   -2.3058600E+00
 1.6800    6.4271858E-02    2.2795509E+00   -2.2795509E+00
 1.6900    6.2780673E-02    2.2532493E+00   -2.2532493E+00
 1.7000    6.1321109E-02    2.2269871E+00   -2.2269871E+00
 1.7100    5.9892467E-02    2.2007681E+00   -2.2007681E+00
 1.7200    5.8493335E-02    2.1745687E+00   -2.1745687E+00
 1.7300    5.7122245E-02    2.1483614E+00   -2.1483614E+00
 1.7400    5.5778452E-02    2.1221439E+00   -2.1221439E+00
 1.7500    5.4462253E-02    2.0959531E+00   -2.0959531E+00
 1.7600    5.3174583E-02    2.0698520E+00   -2.0698520E+00
 1.7700    5.1916140E-02    2.0438960E+00   -2.0438960E+00
 1.7800    5.0686633E-02    2.0181029E+00   -2.0181029E+00
 1.7900    4.9484725E-02    1.9924484E+00   -1.9924484E+00
 1.8000    4.8308778E-02    1.9668939E+00   -1.9668939E+00
 1.8100    4.7157841E-02    1.9414264E+00   -1.9414264E+00
 1.8200    4.6032064E-02    1.9160776E+00   -1.9160776E+00
 1.8300    4.4932109E-02    1.8909012E+00   -1.8909012E+00
 1.8400    4.3857973E-02    1.8659245E+00   -1.8659245E+00
 1.8500    4.2808264E-02    1.8411151E+00   -1.8411151E+00
 1.8600    4.1780642E-02    1.8163973E+00   -1.8163973E+00
 1.8700    4.0773142E-02    1.7917081E+00   -1.7917081E+00
 1.8800    3.9785270E-02    1.7670461E+00   -1.7670461E+00
 1.8900    3.8817952E-02    1.7424732E+00   -1.7424732E+00
 1.9000    3.7872506E-02    1.7180710E+00   -1.7180710E+00
 1.9100    3.6949581E-02    1.6938936E+00   -1.6938936E+00
 1.9200    3.6048877E-02    1.6699523E+00   -1.6699523E+00
 1.9300    3.5169605E-02    1.6462355E+00   -1.6462355E+00
 1.9400    3.4311115E-02    1.6227371E+00   -1.6227371E+00
 1.9500    3.3473195E-02    1.5994706E+00   -1.5994706E+00
 1.9600    3.2655934E-02    1.5764642E+00   -1.5764642E+00
 1.9700    3.1859362E-02    1.5537437E+00   -1.5537437E+00
 1.9800    3.1083079E-02    1.5313141E+00   -1.5313141E+00
 1.9900    3.0326051E-02    1.5091482E+00   -1.5091482E+00
 2.0000    2.9586723E-02    1.4871909E+00   -1.4871909E+00
 2.0100    2.8863431E-02    1.4653789E+00   -1.4653789E+00
 2.0200    2.8154911E-02    1.4436661E+00   -1.4436661E+00
 2.0300    2.7460619E-02    1.4220415E+00   -1.4220415E+00
 2.0400    2.6780683E-02    1.4005282E+00   -1.4005282E+00
 2.0500    2.6115571E-02    1.3791678E+00   -1.3791678E+00
 2.0600    2.5465662E-02    1.3579985E+00   -1.3579985E+00
 2.0700    2.4830977E-02    1.3370399E+00   -1.3370399E+00
 2.0800    2.4211184E-02    1.3162930E+00   -1.3162930E+00
 2.0900    2.3605851E-02    1.2957526E+00   -1.2957526E+00
 2.1000    2.3014717E-02    1.2754226E+00   -1.2754226E+00
 2.1100    2.2437790E-02    1.2553212E+00   -1.2553212E+00
 2.1200    2.1875201E-02    1.2354741E+00   -1.2354741E+00
 2.1300    2.1327000E-02    1.2159027E+00   -1.2159027E+00
 2.1400    2.0793007E-02    1.1966157E+00   -1.1966157E+00
 2.1500    2.0272784E-02    1.1776065E+00   -1.1776065E+00
 2.1600    1.9765655E-02    1.1588536E+00   -1.1588536E+00
 2.1700    1.9270744E-02    1.1403228E+00   -1.1403228E+00
 2.1800    1.8787099E-02    1.1219734E+00   -1.1219734E+00
 2.1900    1.8313904E-02    1.1037711E+00   -1.1037711E+00
 2.2000    1.7850732E-02    1.0857035E+00   -1.0857035E+00
 2.2100    1.7397641E-02    1.0677873E+00   -1.0677873E+00
 2.2200    1.6955047E-02    1.0500617E+00   -1.0500617E+00
 2.2300    1.6523435E-02    1.0325710E+00   -1.0325710E+00
 2.2400    1.6103089E-02    1.0153484E+00   -1.0153484E+00
 2.2500    1.5693985E-02    9.9840817E-01   -9.9840817E-01
 2.2600    1.5295849E-02    9.8174869E-01   -9.8174869E-01
 2.2700    1.4908303E-02    9.6536110E-01   -9.6536110E-01
 2.2800    1.4530963E-02    9.4923548E-01   -9.4923548E-01
 2.2900    1.4163455E-02    9.3336180E-01   -9.3336180E-01
 2.3000    1.3805379E-02    9.1772780E-01   -9.1772780E-01
 2.3100    1.3456309E-02    9.0231832E-01   -9.0231832E-01
 2.3200    1.3115813E-02    8.8711729E-01   -8.8711729E-01
 2.3300    1.2783499E-02    8.7211037E-01   -8.7211037E-01
 2.3400    1.2459047E-02    8.5728732E-01   -8.5728732E-01
 2.3500    1.2142242E-02    8.4264467E-01   -8.4264467E-01
 2.3600    1.1833014E-02    8.2818860E-01   -8.2818860E-01
 2.3700    1.1531426E-02    8.1393474E-01   -8.1393474E-01
 2.3800    1.1237589E-02    7.9990223E-01   -7.9990223E-01
 2.3900    1.0951515E-02    7.8610378E-01   -7.8610378E-01
 2.4000    1.0673027E-02    7.7253822E-01   -7.7253822E-01
 2.4100    1.0401767E-02    7.5919105E-01   -7.5919105E-01
 2.4200    1.0137314E-02    7.4604236E-01   -7.4604236E-01
 2.4300    9.8793100E-03    7.3307604E-01   -7.3307604E-01
 2.4400    9.6275249E-03    7.2028466E-01   -7.2028466E-01
 2.4500    9.3818387E-03    7.0766871E-01   -7.0766871E-01
 2.4600    9.1421932E-03    6.9523315E-01   -6.9523315E-01
 2.4700    8.9085487E-03    6.8298431E-01   -6.8298431E-01
 2.4800    8.6808565E-03    6.7092783E-01   -6.7092783E-01
 2.4900    8.4590318E-03    6.5906647E-01   -6.5906647E-01
 2.5000    8.2429255E-03    6.4739785E-01   -6.4739785E-01
 2.5100    8.0323169E-03    6.3591364E-01   -6.3591364E-01
 2.5200    7.8269457E-03    6.2460185E-01   -6.2460185E-01
 2.5300    7.6265736E-03    6.1345170E-01   -6.1345170E-01
 2.5400    7.4310411E-03    6.0245826E-01   -6.0245826E-01
 2.5500    7.2402862E-03    5.9162424E-01   -5.9162424E-01
 2.5600    7.0543107E-03    5.8095752E-01   -5.8095752E-01
 2.5700    6.8731094E-03    5.7046548E-01   -5.7046548E-01
 2.5800    6.6966054E-03    5.6014954E-01   -5.6014954E-01
 2.5900    6.5246354E-03    5.5000374E-01   -5.5000374E-01
 2.6000    6.3569964E-03    5.4001836E-01   -5.4001836E-01
 2.6100    6.1935171E-03    5.3018596E-01   -5.3018596E-01
 2.6200    6.0340928E-03    5.2050443E-01   -5.2050443E-01
 2.6300    5.8786559E-03    5.1097470E-01   -5.1097470E-01
 2.6400    5.7271128E-03    5.0159530E-01   -5.0159530E-01
 2.6500    5.5793165E-03    4.9235983E-01   -4.9235983E-01
 2.6600    5.4351109E-03    4.8326077E-01   -4.8326077E-01
 2.6700    5.2944121E-03    4.7429673E-01   -4.7429673E-01
 2.6800    5.1572489E-03    4.6547627E-01   -4.6547627E-01
 2.6900    5.0237178E-03    4.5681427E-01   -4.5681427E-01
 2.7000    4.8938865E-03    4.4832328E-01   -4.4832328E-01
 2.7100    4.7677195E-03    4.4000655E-01   -4.4000655E-01
 2.7200    4.6450725E-03    4.3185721E-01   -4.3185721E-01
 2.7300    4.5257498E-03    4.2386318E-01   -4.2386318E-01
 2.7400    4.4095732E-03    4.1601362E-01   -4.1601362E-01
 2.7500    4.2964172E-03    4.0830218E-01   -4.0830218E-01
 2.7600    4.1861940E-03    4.0072587E-01   -4.0072587E-01
 2.7700    4.0788192E-03    3.9328180E-01   -3.9328180E-01
 2.7800    3.9741945E-03    3.8596558E-01   -3.8596558E-01
 2.7900    3.8722227E-03    3.7877264E-01   -3.7877264E-01
 2.8000    3.7728335E-03    3.7170086E-01   -3.7170086E-01
 2.8100    3.6759952E-03    3.6475180E-01   -3.6475180E-01
 2.8200    3.5817042E-03    3.5792975E-01   -3.5792975E-01
 2.8300    3.4899589E-03    3.5123925E-01   -3.5123925E-01
 2.8400    3.4007324E-03    3.4468232E-01   -3.4468232E-01
 2.8500    3.3139528E-03    3.3825631E-01   -3.3825631E-01
 2.8600    3.2294954E-03    3.3195300E-01   -3.3195300E-01
 2.8700    3.1471952E-03    3.2575969E-01   -3.2575969E-01
 2.8800    3.0668825E-03    3.1966271E-01   -3.1966271E-01
 2.8900    2.9884339E-03    3.1365283E-01   -3.1365283E-01
 2.9000    2.9118111E-03    3.0772944E-01   -3.0772944E-01
 2.9100    2.8370547E-03    3.0190031E-01   -3.0190031E-01
 2.9200    2.7642289E-03    2.9617580E-01   -2.9617580E-01
 2.9300    2.6933471E-03    2.9056107E-01   -2.9056107E-01
 2.9400    2.6243341E-03    2.8505171E-01   -2.8505171E-01
 2.9500    2.5570507E-03    2.7963610E-01   -2.7963610E-01
 2.9600    2.4913642E-03    2.7430297E-01   -2.7430297E-01
 2.9700    2.4272126E-03    2.6904850E-01   -2.6904850E-01
 2.9800    2.3646145E-03    2.6387773E-01   -2.6387773E-01
 2.9900    2.3036227E-03    2.5879960E-01   -2.5879960E-01
 3.0000    2.2442611E-03    2.5381995E-01   -2.5381995E-01
 3.0100    2.1864946E-03    2.4893804E-01   -2.4893804E-01
 3.0200    2.1302484E-03    2.4414847E-01   -2.4414847E-01
 3.0300    2.0754493E-03    2.3944582E-01   -2.3944582E-01
 3.0400    2.0220515E-03    2.3482766E-01   -2.3482766E-01
 3.0500    1.9700310E-03    2.3029399E-01   -2.3029399E-01
 3.0600    1.9193621E-03    2.2584456E-01   -2.2584456E-01
 3.0700    1.8700025E-03    2.2147709E-01   -2.2147709E-01
 3.0800    1.8218995E-03    2.1718794E-01   -2.1718794E-01
 3.0900    1.7750093E-03    2.1297442E-01   -2.1297442E-01
 3.1000    1.7293098E-03    2.0883633E-01   -2.0883633E-01
 3.1100    1.6847952E-03    2.0477539E-01   -2.0477539E-01
 3.1200    1.6414571E-03    2.0079301E-01   -2.0079301E-01
 3.1300    1.5992672E-03    1.9688815E-01   -1.9688815E-01
 3.1400    1.5581756E-03    1.9305700E-01   -1.9305700E-01
 3.1500    1.5181236E-03    1.8929455E-01   -1.8929455E-01
 3.1600    1.4790619E-03    1.8559675E-01   -1.8559675E-01
 3.1700    1.4409617E-03    1.8196205E-01   -1.8196205E-01
 3.1800    1.4038158E-03    1.7839153E-01   -1.7839153E-01
 3.1900    1.3676302E-03    1.7488796E-01   -1.7488796E-01
 3.2000    1.3324101E-03    1.7145405E-01   -1.7145405E-01
 3.2100    1.2981470E-03    1.6809074E-01   -1.6809074E-01
 3.2200    1.2648128E-03    1.6479645E-01   -1.6479645E-01
 3.2300    1.2323650E-03    1.6156759E-01   -1.6156759E-01
 3.2400    1.2007583E-03    1.5840011E-01   -1.5840011E-01
 3.2500    1.1699575E-03    1.5529113E-01   -1.5529113E-01
 3.2600    1.1399439E-03    1.5223991E-01   -1.5223991E-01
 3.2700    1.1107115E-03    1.4924736E-01   -1.4924736E-01
 3.2800    1.0822546E-03    1.4631437E-01   -1.4631437E-01
 3.2900    1.0545524E-03    1.4343984E-01   -1.4343984E-01
 3.3000    1.0275638E-03    1.4061982E-01   -1.4061982E-01
 3.3100    1.0012382E-03    1.3784889E-01   -1.3784889E-01
 3.3200    9.7553659E-04    1.3512310E-01   -1.3512310E-01
 3.3300    9.5044756E-04    1.3244223E-01   -1.3244223E-01
 3.3400    9.2598470E-04    1.2980954E-01   -1.2980954E-01
 3.3500    9.0216735E-04    1.2722914E-01   -1.2722914E-01
 3.3600    8.7899959E-04    1.2470305E-01   -1.2470305E-01
