# total charge: 6.000000 
# r(A)     rho (e/A^3)     4*pi*r^2*rho(e/A)  dip  
 0.0000    1.0892185E+00    0.0000000E+00    4.7873074E+01
 0.0100    1.0882062E+00    1.3674802E-03    4.7632938E+01
 0.0200    1.0869287E+00    5.4634994E-03    4.6919660E+01
 0.0300    1.0853345E+00    1.2274844E-02    4.5754263E+01
 0.0400    1.0833704E+00    2.1782455E-02    4.4170634E+01
 0.0500    1.0809801E+00    3.3959992E-02    4.2213879E+01
 0.0600    1.0781029E+00    4.8772225E-02    3.9938180E+01
 0.0700    1.0746794E+00    6.6173615E-02    3.7404298E+01
 0.0800    1.0706648E+00    8.6107970E-02    3.4676878E+01
 0.0900    1.0660421E+00    1.0850987E-01    3.1821720E+01
 0.1000    1.0608261E+00    1.3330734E-01    2.8903180E+01
 0.1100    1.0550558E+00    1.6042448E-01    2.5981837E+01
 0.1200    1.0487810E+00    1.8978294E-01    2.3112544E+01
 0.1300    1.0420524E+00    2.2130240E-01    2.0342929E+01
 0.1400    1.0349160E+00    2.5490071E-01    1.7712395E+01
 0.1500    1.0274138E+00    2.9049440E-01    1.5251617E+01
 0.1600    1.0195848E+00    3.2799950E-01    1.2982501E+01
 0.1700    1.0114678E+00    3.6733283E-01    1.0918556E+01
 0.1800    1.0031012E+00    4.0841305E-01    9.0656059E+00
 0.1900    9.9452315E-01    4.5116143E-01    7.4227363E+00
 0.2000    9.8577010E-01    4.9550209E-01    5.9834139E+00
 0.2100    9.7687621E-01    5.4136227E-01    4.7366692E+00
 0.2200    9.6787394E-01    5.8867287E-01    3.6682783E+00
 0.2300    9.5879508E-01    6.3736958E-01    2.7618749E+00
 0.2400    9.4967155E-01    6.8739406E-01    1.9999496E+00
 0.2500    9.4053540E-01    7.3869478E-01    1.3647013E+00
 0.2600    9.3141812E-01    7.9122726E-01    8.3872905E-01
 0.2700    9.2234975E-01    8.4495392E-01    4.0555826E-01
 0.2800    9.1335834E-01    8.9984380E-01    5.0010392E-02
 0.2900    9.0446974E-01    9.5587235E-01   -2.4156846E-01
 0.3000    8.9570738E-01    1.0130212E+00   -4.8119937E-01
 0.3100    8.8709218E-01    1.0712775E+00   -6.7925926E-01
 0.3200    8.7864226E-01    1.1306337E+00   -8.4454307E-01
 0.3300    8.7037301E-01    1.1910861E+00   -9.8437783E-01
 0.3400    8.6229743E-01    1.2526357E+00   -1.1047694E+00
 0.3500    8.5442655E-01    1.3152875E+00   -1.2105656E+00
 0.3600    8.4676953E-01    1.3790502E+00   -1.3056220E+00
 0.3700    8.3933332E-01    1.4439354E+00   -1.3929618E+00
 0.3800    8.3212221E-01    1.5099556E+00   -1.4749219E+00
 0.3900    8.2513764E-01    1.5771227E+00   -1.5532840E+00
 0.4000    8.1837842E-01    1.6454474E+00   -1.6293878E+00
 0.4100    8.1184112E-01    1.7149388E+00   -1.7042274E+00
 0.4200    8.0552038E-01    1.7856033E+00   -1.7785301E+00
 0.4300    7.9940893E-01    1.8574442E+00   -1.8528200E+00
 0.4400    7.9349738E-01    1.9304596E+00   -1.9274665E+00
 0.4500    7.8777404E-01    2.0046408E+00   -2.0027227E+00
 0.4600    7.8222491E-01    2.0799705E+00   -2.0787536E+00
 0.4700    7.7683410E-01    2.1564225E+00   -2.1556582E+00
 0.4800    7.7158446E-01    2.2339621E+00   -2.2334868E+00
 0.4900    7.6645815E-01    2.3125465E+00   -2.3122538E+00
 0.5000    7.6143695E-01    2.3921247E+00   -2.3919463E+00
 0.5100    7.5650203E-01    2.4726367E+00   -2.4725290E+00
 0.5200    7.5163352E-01    2.5540106E+00   -2.5539463E+00
 0.5300    7.4681049E-01    2.6361615E+00   -2.6361234E+00
 0.5400    7.4201125E-01    2.7189916E+00   -2.7189694E+00
 0.5500    7.3721415E-01    2.8023921E+00   -2.8023792E+00
 0.5600    7.3239808E-01    2.8862445E+00   -2.8862371E+00
 0.5700    7.2754255E-01    2.9704208E+00   -2.9704165E+00
 0.5800    7.2262752E-01    3.0547829E+00   -3.0547805E+00
 0.5900    7.1763324E-01    3.1391816E+00   -3.1391802E+00
 0.6000    7.1254028E-01    3.2234563E+00   -3.2234556E+00
 0.6100    7.0732991E-01    3.3074368E+00   -3.3074364E+00
 0.6200    7.0198445E-01    3.3909449E+00   -3.3909447E+00
 0.6300    6.9648767E-01    3.4737967E+00   -3.4737965E+00
 0.6400    6.9082495E-01    3.5558041E+00   -3.5558041E+00
 0.6500    6.8498342E-01    3.6367767E+00   -3.6367767E+00
 0.6600    6.7895177E-01    3.7165216E+00   -3.7165216E+00
 0.6700    6.7272018E-01    3.7948440E+00   -3.7948440E+00
 0.6800    6.6628010E-01    3.8715470E+00   -3.8715470E+00
 0.6900    6.5962440E-01    3.9464332E+00   -3.9464332E+00
 0.7000    6.5274767E-01    4.0193079E+00   -4.0193079E+00
 0.7100    6.4564653E-01    4.0899819E+00   -4.0899819E+00
 0.7200    6.3831973E-01    4.1582742E+00   -4.1582742E+00
 0.7300    6.3076793E-01    4.2240124E+00   -4.2240124E+00
 0.7400    6.2299346E-01    4.2870327E+00   -4.2870327E+00
 0.7500    6.1500025E-01    4.3471806E+00   -4.3471806E+00
 0.7600    6.0679395E-01    4.4043141E+00   -4.4043141E+00
 0.7700    5.9838199E-01    4.4583056E+00   -4.4583056E+00
 0.7800    5.8977334E-01    4.5090413E+00   -4.5090413E+00
 0.7900    5.8097799E-01    4.5564197E+00   -4.5564197E+00
 0.8000    5.7200660E-01    4.6003501E+00   -4.6003501E+00
 0.8100    5.6287056E-01    4.6407528E+00   -4.6407528E+00
 0.8200    5.5358221E-01    4.6775635E+00   -4.6775635E+00
 0.8300    5.4415522E-01    4.7107369E+00   -4.7107369E+00
 0.8400    5.3460466E-01    4.7402493E+00   -4.7402493E+00
 0.8500    5.2494687E-01    4.7660991E+00   -4.7660991E+00
 0.8600    5.1519899E-01    4.7883046E+00   -4.7883046E+00
 0.8700    5.0537847E-01    4.8069002E+00   -4.8069002E+00
 0.8800    4.9550264E-01    4.8219331E+00   -4.8219331E+00
 0.8900    4.8558849E-01    4.8334615E+00   -4.8334615E+00
 0.9000    4.7565273E-01    4.8415551E+00   -4.8415551E+00
 0.9100    4.6571192E-01    4.8462968E+00   -4.8462968E+00
 0.9200    4.5578254E-01    4.8477834E+00   -4.8477834E+00
 0.9300    4.4588082E-01    4.8461243E+00   -4.8461243E+00
 0.9400    4.3602251E-01    4.8414392E+00   -4.8414392E+00
 0.9500    4.2622277E-01    4.8338562E+00   -4.8338562E+00
 0.9600    4.1649605E-01    4.8235104E+00   -4.8235104E+00
 0.9700    4.0685611E-01    4.8105438E+00   -4.8105438E+00
 0.9800    3.9731595E-01    4.7951038E+00   -4.7951038E+00
 0.9900    3.8788774E-01    4.7773417E+00   -4.7773417E+00
 1.0000    3.7858275E-01    4.7574111E+00   -4.7574111E+00
 1.0100    3.6941127E-01    4.7354664E+00   -4.7354664E+00
 1.0200    3.6038247E-01    4.7116592E+00   -4.7116592E+00
 1.0300    3.5150418E-01    4.6861351E+00   -4.6861351E+00
 1.0400    3.4278283E-01    4.6590311E+00   -4.6590311E+00
 1.0500    3.3422355E-01    4.6304746E+00   -4.6304746E+00
 1.0600    3.2583031E-01    4.6005852E+00   -4.6005852E+00
 1.0700    3.1760619E-01    4.5694757E+00   -4.5694757E+00
 1.0800    3.0955338E-01    4.5372522E+00   -4.5372522E+00
 1.0900    3.0167316E-01    4.5040119E+00   -4.5040119E+00
 1.1000    2.9396579E-01    4.4698406E+00   -4.4698406E+00
 1.1100    2.8643046E-01    4.4348101E+00   -4.4348101E+00
 1.1200    2.7906534E-01    4.3989782E+00   -4.3989782E+00
 1.1300    2.7186771E-01    4.3623888E+00   -4.3623888E+00
 1.1400    2.6483411E-01    4.3250734E+00   -4.3250734E+00
 1.1500    2.5796054E-01    4.2870526E+00   -4.2870526E+00
 1.1600    2.5124266E-01    4.2483396E+00   -4.2483396E+00
 1.1700    2.4467616E-01    4.2089450E+00   -4.2089450E+00
 1.1800    2.3825713E-01    4.1688838E+00   -4.1688838E+00
 1.1900    2.3198235E-01    4.1281810E+00   -4.1281810E+00
 1.2000    2.2584943E-01    4.0868750E+00   -4.0868750E+00
 1.2100    2.1985679E-01    4.0450182E+00   -4.0450182E+00
 1.2200    2.1400340E-01    4.0026738E+00   -4.0026738E+00
 1.2300    2.0828857E-01    3.9599120E+00   -3.9599120E+00
 1.2400    2.0271163E-01    3.9168045E+00   -3.9168045E+00
 1.2500    1.9727172E-01    3.8734211E+00   -3.8734211E+00
 1.2600    1.9196771E-01    3.8298268E+00   -3.8298268E+00
 1.2700    1.8679817E-01    3.7860813E+00   -3.7860813E+00
 1.2800    1.8176143E-01    3.7422392E+00   -3.7422392E+00
 1.2900    1.7685559E-01    3.6983506E+00   -3.6983506E+00
 1.3000    1.7207853E-01    3.6544605E+00   -3.6544605E+00
 1.3100    1.6742794E-01    3.6106084E+00   -3.6106084E+00
 1.3200    1.6290126E-01    3.5668281E+00   -3.5668281E+00
 1.3300    1.5849574E-01    3.5231469E+00   -3.5231469E+00
 1.3400    1.5420850E-01    3.4795875E+00   -3.4795875E+00
 1.3500    1.5003657E-01    3.4361691E+00   -3.4361691E+00
 1.3600    1.4597699E-01    3.3929081E+00   -3.3929081E+00
 1.3700    1.4202683E-01    3.3498194E+00   -3.3498194E+00
 1.3800    1.3818316E-01    3.3069159E+00   -3.3069159E+00
 1.3900    1.3444308E-01    3.2642087E+00   -3.2642087E+00
 1.4000    1.3080373E-01    3.2217071E+00   -3.2217071E+00
 1.4100    1.2726224E-01    3.1794182E+00   -3.1794182E+00
 1.4200    1.2381581E-01    3.1373477E+00   -3.1373477E+00
 1.4300    1.2046166E-01    3.0954998E+00   -3.0954998E+00
 1.4400    1.1719711E-01    3.0538786E+00   -3.0538786E+00
 1.4500    1.1401958E-01    3.0124879E+00   -3.0124879E+00
 1.4600    1.1092658E-01    2.9713320E+00   -2.9713320E+00
 1.4700    1.0791571E-01    2.9304155E+00   -2.9304155E+00
 1.4800    1.0498468E-01    2.8897429E+00   -2.8897429E+00
 1.4900    1.0213124E-01    2.8493186E+00   -2.8493186E+00
 1.5000    9.9353239E-02    2.8091467E+00   -2.8091467E+00
 1.5100    9.6648561E-02    2.7692308E+00   -2.7692308E+00
 1.5200    9.4015181E-02    2.7295750E+00   -2.7295750E+00
 1.5300    9.1451148E-02    2.6901834E+00   -2.6901834E+00
 1.5400    8.8954595E-02    2.6510608E+00   -2.6510608E+00
 1.5500    8.6523743E-02    2.6122128E+00   -2.6122128E+00
 1.5600    8.4156903E-02    2.5736460E+00   -2.5736460E+00
 1.5700    8.1852464E-02    2.5353675E+00   -2.5353675E+00
 1.5800    7.9608876E-02    2.4973852E+00   -2.4973852E+00
 1.5900    7.7424632E-02    2.4597064E+00   -2.4597064E+00
 1.6000    7.5298268E-02    2.4223384E+00   -2.4223384E+00
 1.6100    7.3228372E-02    2.3852889E+00   -2.3852889E+00
 1.6200    7.1213590E-02    2.3485660E+00   -2.3485660E+00
 1.6300    6.9252620E-02    2.3121781E+00   -2.3121781E+00
 1.6400    6.7344188E-02    2.2761332E+00   -2.2761332E+00
 1.6500    6.5487038E-02    2.2404389E+00   -2.2404389E+00
 1.6600    6.3679917E-02    2.2051012E+00   -2.2051012E+00
 1.6700    6.1921582E-02    2.1701255E+00   -2.1701255E+00
 1.6800    6.0210809E-02    2.1355163E+00   -2.1355163E+00
 1.6900    5.8546408E-02    2.1012781E+00   -2.1012781E+00
 1.7000    5.6927233E-02    2.0674156E+00   -2.0674156E+00
 1.7100    5.5352180E-02    2.0339338E+00   -2.0339338E+00
 1.7200    5.3820171E-02    2.0008376E+00   -2.0008376E+00
 1.7300    5.2330140E-02    1.9681308E+00   -1.9681308E+00
 1.7400    5.0881024E-02    1.9358166E+00   -1.9358166E+00
 1.7500    4.9471762E-02    1.9038965E+00   -1.9038965E+00
 1.7600    4.8101307E-02    1.8723717E+00   -1.8723717E+00
 1.7700    4.6768630E-02    1.8412427E+00   -1.8412427E+00
 1.7800    4.5472728E-02    1.8105098E+00   -1.8105098E+00
 1.7900    4.4212623E-02    1.7801730E+00   -1.7801730E+00
 1.8000    4.2987357E-02    1.7502320E+00   -1.7502320E+00
 1.8100    4.1795987E-02    1.7206859E+00   -1.7206859E+00
 1.8200    4.0637581E-02    1.6915331E+00   -1.6915331E+00
 1.8300    3.9511225E-02    1.6627714E+00   -1.6627714E+00
 1.8400    3.8416019E-02    1.6343982E+00   -1.6343982E+00
 1.8500    3.7351085E-02    1.6064105E+00   -1.6064105E+00
 1.8600    3.6315571E-02    1.5788055E+00   -1.5788055E+00
 1.8700    3.5308652E-02    1.5515801E+00   -1.5515801E+00
 1.8800    3.4329525E-02    1.5247315E+00   -1.5247315E+00
 1.8900    3.3377415E-02    1.4982565E+00   -1.4982565E+00
 1.9000    3.2451565E-02    1.4721522E+00   -1.4721522E+00
 1.9100    3.1551241E-02    1.4464154E+00   -1.4464154E+00
 1.9200    3.0675734E-02    1.4210432E+00   -1.4210432E+00
 1.9300    2.9824350E-02    1.3960323E+00   -1.3960323E+00
 1.9400    2.8996421E-02    1.3713797E+00   -1.3713797E+00
 1.9500    2.8191292E-02    1.3470821E+00   -1.3470821E+00
 1.9600    2.7408330E-02    1.3231363E+00   -1.3231363E+00
 1.9700    2.6646920E-02    1.2995390E+00   -1.2995390E+00
 1.9800    2.5906467E-02    1.2762873E+00   -1.2762873E+00
 1.9900    2.5186395E-02    1.2533779E+00   -1.2533779E+00
 2.0000    2.4486145E-02    1.2308079E+00   -1.2308079E+00
 2.0100    2.3805177E-02    1.2085744E+00   -1.2085744E+00
 2.0200    2.3142969E-02    1.1866747E+00   -1.1866747E+00
 2.0300    2.2499020E-02    1.1651063E+00   -1.1651063E+00
 2.0400    2.1872843E-02    1.1438668E+00   -1.1438668E+00
 2.0500    2.1263971E-02    1.1229540E+00   -1.1229540E+00
 2.0600    2.0671947E-02    1.1023657E+00   -1.1023657E+00
 2.0700    2.0096327E-02    1.0820996E+00   -1.0820996E+00
 2.0800    1.9536678E-02    1.0621534E+00   -1.0621534E+00
 2.0900    1.8992581E-02    1.0425248E+00   -1.0425248E+00
 2.1000    1.8463626E-02    1.0232116E+00   -1.0232116E+00
 2.1100    1.7949419E-02    1.0042114E+00   -1.0042114E+00
 2.1200    1.7449574E-02    9.8552222E-01   -9.8552222E-01
 2.1300    1.6963714E-02    9.6714150E-01   -9.6714150E-01
 2.1400    1.6491468E-02    9.4906666E-01   -9.4906666E-01
 2.1500    1.6032469E-02    9.3129481E-01   -9.3129481E-01
 2.1600    1.5586358E-02    9.1382283E-01   -9.1382283E-01
 2.1700    1.5152780E-02    8.9664730E-01   -8.9664730E-01
 2.1800    1.4731387E-02    8.7976459E-01   -8.7976459E-01
 2.1900    1.4321837E-02    8.6317097E-01   -8.6317097E-01
 2.2000    1.3923803E-02    8.4686285E-01   -8.4686285E-01
 2.2100    1.3536966E-02    8.3083687E-01   -8.3083687E-01
 2.2200    1.3161025E-02    8.1508990E-01   -8.1508990E-01
 2.2300    1.2795683E-02    7.9961891E-01   -7.9961891E-01
 2.2400    1.2440653E-02    7.8442075E-01   -7.8442075E-01
 2.2500    1.2095650E-02    7.6949198E-01   -7.6949198E-01
 2.2600    1.1760392E-02    7.5482893E-01   -7.5482893E-01
 2.2700    1.1434602E-02    7.4042763E-01   -7.4042763E-01
 2.2800    1.1118006E-02    7.2628397E-01   -7.2628397E-01
 2.2900    1.0810337E-02    7.1239367E-01   -7.1239367E-01
 2.3000    1.0511332E-02    6.9875236E-01   -6.9875236E-01
 2.3100    1.0220734E-02    6.8535552E-01   -6.8535552E-01
 2.3200    9.9382926E-03    6.7219861E-01   -6.7219861E-01
 2.3300    9.6637637E-03    6.5927713E-01   -6.5927713E-01
 2.3400    9.3969134E-03    6.4658675E-01   -6.4658675E-01
 2.3500    9.1375186E-03    6.3412352E-01   -6.3412352E-01
 2.3600    8.8853683E-03    6.2188388E-01   -6.2188388E-01
 2.3700    8.6402623E-03    6.0986468E-01   -6.0986468E-01
 2.3800    8.4020076E-03    5.9806288E-01   -5.9806288E-01
 2.3900    8.1704127E-03    5.8647521E-01   -5.8647521E-01
 2.4000    7.9452854E-03    5.7509799E-01   -5.7509799E-01
 2.4100    7.7264329E-03    5.6392713E-01   -5.6392713E-01
 2.4200    7.5136670E-03    5.5295850E-01   -5.5295850E-01
 2.4300    7.3068085E-03    5.4218829E-01   -5.4218829E-01
 2.4400    7.1056888E-03    5.3161313E-01   -5.3161313E-01
 2.4500    6.9101485E-03    5.2123001E-01   -5.2123001E-01
 2.4600    6.7200343E-03    5.1103608E-01   -5.1103608E-01
 2.4700    6.5351975E-03    5.0102856E-01   -5.0102856E-01
 2.4800    6.3554937E-03    4.9120470E-01   -4.9120470E-01
 2.4900    6.1807826E-03    4.8156180E-01   -4.8156180E-01
 2.5000    6.0109273E-03    4.7209712E-01   -4.7209712E-01
 2.5100    5.8457918E-03    4.6280778E-01   -4.6280778E-01
 2.5200    5.6852414E-03    4.5369067E-01   -4.5369067E-01
 2.5300    5.5291444E-03    4.4474271E-01   -4.4474271E-01
 2.5400    5.3773758E-03    4.3596105E-01   -4.3596105E-01
 2.5500    5.2298191E-03    4.2734329E-01   -4.2734329E-01
 2.5600    5.0863657E-03    4.1888748E-01   -4.1888748E-01
 2.5700    4.9469110E-03    4.1059174E-01   -4.1059174E-01
 2.5800    4.8113495E-03    4.0245394E-01   -4.0245394E-01
 2.5900    4.6795732E-03    3.9447151E-01   -3.9447151E-01
 2.6000    4.5514733E-03    3.8664158E-01   -3.8664158E-01
 2.6100    4.4269444E-03    3.7896138E-01   -3.7896138E-01
 2.6200    4.3058872E-03    3.7142839E-01   -3.7142839E-01
 2.6300    4.1882068E-03    3.6404031E-01   -3.6404031E-01
 2.6400    4.0738090E-03    3.5679469E-01   -3.5679469E-01
 2.6500    3.9625983E-03    3.4968875E-01   -3.4968875E-01
 2.6600    3.8544799E-03    3.4271958E-01   -3.4271958E-01
 2.6700    3.7493653E-03    3.3588464E-01   -3.3588464E-01
 2.6800    3.6471755E-03    3.2918202E-01   -3.2918202E-01
 2.6900    3.5478389E-03    3.2261036E-01   -3.2261036E-01
 2.7000    3.4512855E-03    3.1616827E-01   -3.1616827E-01
 2.7100    3.3574411E-03    3.0985381E-01   -3.0985381E-01
 2.7200    3.2662261E-03    3.0366442E-01   -3.0366442E-01
 2.7300    3.1775586E-03    2.9759712E-01   -2.9759712E-01
 2.7400    3.0913593E-03    2.9164899E-01   -2.9164899E-01
 2.7500    3.0075536E-03    2.8581738E-01   -2.8581738E-01
 2.7600    2.9260712E-03    2.8009988E-01   -2.8009988E-01
 2.7700    2.8468430E-03    2.7449404E-01   -2.7449404E-01
 2.7800    2.7698006E-03    2.6899733E-01   -2.6899733E-01
 2.7900    2.6948777E-03    2.6360724E-01   -2.6360724E-01
 2.8000    2.6220127E-03    2.5832159E-01   -2.5832159E-01
 2.8100    2.5511501E-03    2.5313868E-01   -2.5313868E-01
 2.8200    2.4822396E-03    2.4805717E-01   -2.4805717E-01
 2.8300    2.4152326E-03    2.4307578E-01   -2.4307578E-01
 2.8400    2.3500789E-03    2.3819299E-01   -2.3819299E-01
 2.8500    2.2867241E-03    2.3340672E-01   -2.3340672E-01
 2.8600    2.2251090E-03    2.2871425E-01   -2.2871425E-01
 2.8700    2.1651713E-03    2.2411241E-01   -2.2411241E-01
 2.8800    2.1068500E-03    2.1959804E-01   -2.1959804E-01
 2.8900    2.0500919E-03    2.1516860E-01   -2.1516860E-01
 2.9000    1.9948554E-03    2.1082266E-01   -2.1082266E-01
 2.9100    1.9411092E-03    2.0655981E-01   -2.0655981E-01
 2.9200    1.8888255E-03    2.0237991E-01   -2.0237991E-01
 2.9300    1.8379706E-03    1.9828217E-01   -1.9828217E-01
 2.9400    1.7885013E-03    1.9426465E-01   -1.9426465E-01
 2.9500    1.7403678E-03    1.9032460E-01   -1.9032460E-01
 2.9600    1.6935231E-03    1.8645945E-01   -1.8645945E-01
 2.9700    1.6479310E-03    1.8266771E-01   -1.8266771E-01
 2.9800    1.6035667E-03    1.7894906E-01   -1.7894906E-01
 2.9900    1.5604103E-03    1.7530369E-01   -1.7530369E-01
 3.0000    1.5184378E-03    1.7173127E-01   -1.7173127E-01
 3.0100    1.4776174E-03    1.6823055E-01   -1.6823055E-01
 3.0200    1.4379128E-03    1.6479966E-01   -1.6479966E-01
 3.0300    1.3992891E-03    1.6143681E-01   -1.6143681E-01
 3.0400    1.3617170E-03    1.5814078E-01   -1.5814078E-01
 3.0500    1.3251712E-03    1.5491074E-01   -1.5491074E-01
 3.0600    1.2896265E-03    1.5174580E-01   -1.5174580E-01
 3.0700    1.2550549E-03    1.4864466E-01   -1.4864466E-01
 3.0800    1.2214258E-03    1.4560571E-01   -1.4560571E-01
 3.0900    1.1887104E-03    1.4262737E-01   -1.4262737E-01
 3.1000    1.1568837E-03    1.3970854E-01   -1.3970854E-01
 3.1100    1.1259253E-03    1.3684855E-01   -1.3684855E-01
 3.1200    1.0958159E-03    1.3404686E-01   -1.3404686E-01
 3.1300    1.0665343E-03    1.3130262E-01   -1.3130262E-01
 3.1400    1.0380557E-03    1.2861447E-01   -1.2861447E-01
 3.1500    1.0103529E-03    1.2598072E-01   -1.2598072E-01
 3.1600    9.8339926E-04    1.2339964E-01   -1.2339964E-01
 3.1700    9.5717135E-04    1.2086988E-01   -1.2086988E-01
 3.1800    9.3165034E-04    1.1839055E-01   -1.1839055E-01
 3.1900    9.0682095E-04    1.1596122E-01   -1.1596122E-01
 3.2000    8.8266891E-04    1.1358151E-01   -1.1358151E-01
 3.2100    8.5917815E-04    1.1125080E-01   -1.1125080E-01
 3.2200    8.3632940E-04    1.0896800E-01   -1.0896800E-01
 3.2300    8.1410090E-04    1.0673163E-01   -1.0673163E-01
 3.2400    7.9247066E-04    1.0454014E-01   -1.0454014E-01
 3.2500    7.7141885E-04    1.0239219E-01   -1.0239219E-01
 3.2600    7.5092931E-04    1.0028688E-01   -1.0028688E-01
 3.2700    7.3098916E-04    9.8223703E-02   -9.8223703E-02
 3.2800    7.1158622E-04    9.6202217E-02   -9.6202217E-02
 3.2900    6.9270553E-04    9.4221566E-02   -9.4221566E-02
 3.3000    6.7432762E-04    9.2280235E-02   -9.2280235E-02
 3.3100    6.5643066E-04    9.0376331E-02   -9.0376331E-02
 3.3200    6.3899563E-04    8.8508283E-02   -8.8508283E-02
 3.3300    6.2201052E-04    8.6675441E-02   -8.6675441E-02
 3.3400    6.0547015E-04    8.4878078E-02   -8.4878078E-02
 3.3500    5.8937165E-04    8.3116782E-02   -8.3116782E-02
 3.3600    5.7370900E-04    8.1391694E-02   -8.1391694E-02
