# total charge: 7.000000 
# r(A)     rho (e/A^3)     4*pi*r^2*rho(e/A)  dip  
 0.0000    1.3590619E+00    0.0000000E+00    5.5851919E+01
 0.0100    1.3578789E+00    1.7063609E-03    5.5571650E+01
 0.0200    1.3563859E+00    6.8179392E-03    5.4739159E+01
 0.0300    1.3545224E+00    1.5319288E-02    5.3378975E+01
 0.0400    1.3522259E+00    2.7188115E-02    5.1530632E+01
 0.0500    1.3494299E+00    4.2393589E-02    4.9246752E+01
 0.0600    1.3460629E+00    6.0894449E-02    4.6590550E+01
 0.0700    1.3420552E+00    8.2637339E-02    4.3632913E+01
 0.0800    1.3373547E+00    1.0755645E-01    4.0449261E+01
 0.0900    1.3319428E+00    1.3557527E-01    3.7116360E+01
 0.1000    1.3258389E+00    1.6660983E-01    3.3709292E+01
 0.1100    1.3190909E+00    2.0057184E-01    3.0298733E+01
 0.1200    1.3117597E+00    2.3737043E-01    2.6948677E+01
 0.1300    1.3039059E+00    2.7691267E-01    2.3714690E+01
 0.1400    1.2955844E+00    3.1910355E-01    2.0642742E+01
 0.1500    1.2868438E+00    3.6384651E-01    1.7768617E+01
 0.1600    1.2777297E+00    4.1104447E-01    1.5117872E+01
 0.1700    1.2682867E+00    4.6060128E-01    1.2706270E+01
 0.1800    1.2585596E+00    5.1242305E-01    1.0540599E+01
 0.1900    1.2485926E+00    5.6641902E-01    8.6197950E+00
 0.2000    1.2384284E+00    6.2250200E-01    6.9362333E+00
 0.2100    1.2281074E+00    6.8058881E-01    5.4771146E+00
 0.2200    1.2176687E+00    7.4060115E-01    4.2258419E+00
 0.2300    1.2071506E+00    8.0246667E-01    3.1633186E+00
 0.2400    1.1965909E+00    8.6611995E-01    2.2691143E+00
 0.2500    1.1860263E+00    9.3150288E-01    1.5224592E+00
 0.2600    1.1754919E+00    9.9856466E-01    9.0305104E-01
 0.2700    1.1650205E+00    1.0672618E+00    3.9166907E-01
 0.2800    1.1546431E+00    1.1375583E+00   -2.9395113E-02
 0.2900    1.1443883E+00    1.2094259E+00   -3.7607136E-01
 0.3000    1.1342827E+00    1.2828435E+00   -6.6238476E-01
 0.3100    1.1243501E+00    1.3577969E+00   -9.0044220E-01
 0.3200    1.1146106E+00    1.4342769E+00   -1.1005046E+00
 0.3300    1.1050811E+00    1.5122789E+00   -1.2711193E+00
 0.3400    1.0957748E+00    1.5918018E+00   -1.4192911E+00
 0.3500    1.0867019E+00    1.6728476E+00   -1.5506720E+00
 0.3600    1.0778702E+00    1.7554211E+00   -1.6697548E+00
 0.3700    1.0692844E+00    1.8395285E+00   -1.7800593E+00
 0.3800    1.0609463E+00    1.9251761E+00   -1.8843035E+00
 0.3900    1.0528547E+00    2.0123686E+00   -1.9845569E+00
 0.4000    1.0450057E+00    2.1011086E+00   -2.0823723E+00
 0.4100    1.0373924E+00    2.1913948E+00   -2.1788982E+00
 0.4200    1.0300057E+00    2.2832217E+00   -2.2749697E+00
 0.4300    1.0228340E+00    2.3765772E+00   -2.3711823E+00
 0.4400    1.0158629E+00    2.4714414E+00   -2.4679494E+00
 0.4500    1.0090758E+00    2.5677853E+00   -2.5655475E+00
 0.4600    1.0024541E+00    2.6655695E+00   -2.6641498E+00
 0.4700    9.9597696E-01    2.7647437E+00   -2.7638519E+00
 0.4800    9.8962222E-01    2.8652451E+00   -2.8646905E+00
 0.4900    9.8336616E-01    2.9669982E+00   -2.9666568E+00
 0.5000    9.7718389E-01    3.0699137E+00   -3.0697056E+00
 0.5100    9.7104952E-01    3.1738880E+00   -3.1737624E+00
 0.5200    9.6493648E-01    3.2788026E+00   -3.2787276E+00
 0.5300    9.5881778E-01    3.3845246E+00   -3.3844803E+00
 0.5400    9.5266631E-01    3.4909063E+00   -3.4908803E+00
 0.5500    9.4645511E-01    3.5977855E+00   -3.5977704E+00
 0.5600    9.4015756E-01    3.7049859E+00   -3.7049773E+00
 0.5700    9.3374755E-01    3.8123174E+00   -3.8123125E+00
 0.5800    9.2719963E-01    3.9195761E+00   -3.9195733E+00
 0.5900    9.2048933E-01    4.0265458E+00   -4.0265443E+00
 0.6000    9.1359335E-01    4.1329989E+00   -4.1329981E+00
 0.6100    9.0648966E-01    4.2386972E+00   -4.2386967E+00
 0.6200    8.9915753E-01    4.3433920E+00   -4.3433917E+00
 0.6300    8.9157758E-01    4.4468257E+00   -4.4468255E+00
 0.6400    8.8373214E-01    4.5487332E+00   -4.5487331E+00
 0.6500    8.7560560E-01    4.6488454E+00   -4.6488454E+00
 0.6600    8.6718485E-01    4.7468927E+00   -4.7468927E+00
 0.6700    8.5845944E-01    4.8426073E+00   -4.8426073E+00
 0.6800    8.4942157E-01    4.9357252E+00   -4.9357252E+00
 0.6900    8.4006585E-01    5.0259872E+00   -5.0259872E+00
 0.7000    8.3038906E-01    5.1131386E+00   -5.1131386E+00
 0.7100    8.2039002E-01    5.1969308E+00   -5.1969308E+00
 0.7200    8.1006964E-01    5.2771230E+00   -5.2771230E+00
 0.7300    7.9943105E-01    5.3534851E+00   -5.3534851E+00
 0.7400    7.8847972E-01    5.4258006E+00   -5.4258006E+00
 0.7500    7.7722348E-01    5.4938690E+00   -5.4938690E+00
 0.7600    7.6567240E-01    5.5575073E+00   -5.5575073E+00
 0.7700    7.5383878E-01    5.6165520E+00   -5.6165520E+00
 0.7800    7.4173694E-01    5.6708607E+00   -5.6708607E+00
 0.7900    7.2938324E-01    5.7203135E+00   -5.7203135E+00
 0.8000    7.1679581E-01    5.7648140E+00   -5.7648140E+00
 0.8100    7.0399437E-01    5.8042898E+00   -5.8042898E+00
 0.8200    6.9099998E-01    5.8386925E+00   -5.8386925E+00
 0.8300    6.7783477E-01    5.8679971E+00   -5.8679971E+00
 0.8400    6.6452175E-01    5.8922021E+00   -5.8922021E+00
 0.8500    6.5108461E-01    5.9113292E+00   -5.9113292E+00
 0.8600    6.3754764E-01    5.9254237E+00   -5.9254237E+00
 0.8700    6.2393564E-01    5.9345551E+00   -5.9345551E+00
 0.8800    6.1027376E-01    5.9388165E+00   -5.9388165E+00
 0.8900    5.9658732E-01    5.9383241E+00   -5.9383241E+00
 0.9000    5.8290155E-01    5.9332151E+00   -5.9332151E+00
 0.9100    5.6924145E-01    5.9236470E+00   -5.9236470E+00
 0.9200    5.5563159E-01    5.9097954E+00   -5.9097954E+00
 0.9300    5.4209589E-01    5.8918526E+00   -5.8918526E+00
 0.9400    5.2865740E-01    5.8700242E+00   -5.8700242E+00
 0.9500    5.1533807E-01    5.8445260E+00   -5.8445260E+00
 0.9600    5.0215857E-01    5.8155823E+00   -5.8155823E+00
 0.9700    4.8913828E-01    5.7834233E+00   -5.7834233E+00
 0.9800    4.7629524E-01    5.7482846E+00   -5.7482846E+00
 0.9900    4.6364616E-01    5.7104051E+00   -5.7104051E+00
 1.0000    4.5120627E-01    5.6700252E+00   -5.6700252E+00
 1.0100    4.3898929E-01    5.6273838E+00   -5.6273838E+00
 1.0200    4.2700729E-01    5.5827155E+00   -5.5827155E+00
 1.0300    4.1527059E-01    5.5362473E+00   -5.5362473E+00
 1.0400    4.0378776E-01    5.4881970E+00   -5.4881970E+00
 1.0500    3.9256566E-01    5.4387710E+00   -5.4387710E+00
 1.0600    3.8160949E-01    5.3881634E+00   -5.3881634E+00
 1.0700    3.7092283E-01    5.3365550E+00   -5.3365550E+00
 1.0800    3.6050778E-01    5.2841120E+00   -5.2841120E+00
 1.0900    3.5036489E-01    5.2309846E+00   -5.2309846E+00
 1.1000    3.4049328E-01    5.1773053E+00   -5.1773053E+00
 1.1100    3.3089055E-01    5.1231868E+00   -5.1231868E+00
 1.1200    3.2155297E-01    5.0687215E+00   -5.0687215E+00
 1.1300    3.1247548E-01    5.0139811E+00   -5.0139811E+00
 1.1400    3.0365195E-01    4.9590175E+00   -4.9590175E+00
 1.1500    2.9507537E-01    4.9038650E+00   -4.9038650E+00
 1.1600    2.8673815E-01    4.8485437E+00   -4.8485437E+00
 1.1700    2.7863249E-01    4.7930652E+00   -4.7930652E+00
 1.1800    2.7075076E-01    4.7374383E+00   -4.7374383E+00
 1.1900    2.6308593E-01    4.6816767E+00   -4.6816767E+00
 1.2000    2.5563182E-01    4.6258044E+00   -4.6258044E+00
 1.2100    2.4838318E-01    4.5698589E+00   -4.5698589E+00
 1.2200    2.4133566E-01    4.5138906E+00   -4.5138906E+00
 1.2300    2.3448550E-01    4.4579590E+00   -4.4579590E+00
 1.2400    2.2782919E-01    4.4021274E+00   -4.4021274E+00
 1.2500    2.2136329E-01    4.3464580E+00   -4.3464580E+00
 1.2600    2.1508413E-01    4.2910080E+00   -4.2910080E+00
 1.2700    2.0898786E-01    4.2358284E+00   -4.2358284E+00
 1.2800    2.0307034E-01    4.1809627E+00   -4.1809627E+00
 1.2900    1.9732723E-01    4.1264472E+00   -4.1264472E+00
 1.3000    1.9175398E-01    4.0723113E+00   -4.0723113E+00
 1.3100    1.8634592E-01    4.0185775E+00   -4.0185775E+00
 1.3200    1.8109825E-01    3.9652628E+00   -3.9652628E+00
 1.3300    1.7600610E-01    3.9123786E+00   -3.9123786E+00
 1.3400    1.7106459E-01    3.8599315E+00   -3.8599315E+00
 1.3500    1.6626881E-01    3.8079234E+00   -3.8079234E+00
 1.3600    1.6161389E-01    3.7563527E+00   -3.7563527E+00
 1.3700    1.5709504E-01    3.7052156E+00   -3.7052156E+00
 1.3800    1.5270764E-01    3.6545071E+00   -3.6545071E+00
 1.3900    1.4844723E-01    3.6042222E+00   -3.6042222E+00
 1.4000    1.4430949E-01    3.5543553E+00   -3.5543553E+00
 1.4100    1.4029027E-01    3.5049002E+00   -3.5049002E+00
 1.4200    1.3638553E-01    3.4558498E+00   -3.4558498E+00
 1.4300    1.3259136E-01    3.4071963E+00   -3.4071963E+00
 1.4400    1.2890397E-01    3.3589314E+00   -3.3589314E+00
 1.4500    1.2531974E-01    3.3110472E+00   -3.3110472E+00
 1.4600    1.2183525E-01    3.2635371E+00   -3.2635371E+00
 1.4700    1.1844725E-01    3.2163960E+00   -3.2163960E+00
 1.4800    1.1515267E-01    3.1696208E+00   -3.1696208E+00
 1.4900    1.1194861E-01    3.1232095E+00   -3.1232095E+00
 1.5000    1.0883231E-01    3.0771609E+00   -3.0771609E+00
 1.5100    1.0580110E-01    3.0314746E+00   -3.0314746E+00
 1.5200    1.0285247E-01    2.9861509E+00   -2.9861509E+00
 1.5300    9.9984010E-02    2.9411913E+00   -2.9411913E+00
 1.5400    9.7193475E-02    2.8965992E+00   -2.8965992E+00
 1.5500    9.4478727E-02    2.8523794E+00   -2.8523794E+00
 1.5600    9.1837730E-02    2.8085373E+00   -2.8085373E+00
 1.5700    8.9268521E-02    2.7650788E+00   -2.7650788E+00
 1.5800    8.6769209E-02    2.7220098E+00   -2.7220098E+00
 1.5900    8.4337984E-02    2.6793369E+00   -2.6793369E+00
 1.6000    8.1973121E-02    2.6370678E+00   -2.6370678E+00
 1.6100    7.9672969E-02    2.5952107E+00   -2.5952107E+00
 1.6200    7.7435924E-02    2.5537735E+00   -2.5537735E+00
 1.6300    7.5260409E-02    2.5127637E+00   -2.5127637E+00
 1.6400    7.3144869E-02    2.4721876E+00   -2.4721876E+00
 1.6500    7.1087784E-02    2.4320513E+00   -2.4320513E+00
 1.6600    6.9087688E-02    2.3923609E+00   -2.3923609E+00
 1.6700    6.7143162E-02    2.3531228E+00   -2.3531228E+00
 1.6800    6.5252828E-02    2.3143432E+00   -2.3143432E+00
 1.6900    6.3415334E-02    2.2760278E+00   -2.2760278E+00
 1.7000    6.1629347E-02    2.2381814E+00   -2.2381814E+00
 1.7100    5.9893551E-02    2.2008080E+00   -2.2008080E+00
 1.7200    5.8206644E-02    2.1639106E+00   -2.1639106E+00
 1.7300    5.6567340E-02    2.1274915E+00   -2.1274915E+00
 1.7400    5.4974372E-02    2.0915519E+00   -2.0915519E+00
 1.7500    5.3426494E-02    2.0560924E+00   -2.0560924E+00
 1.7600    5.1922477E-02    2.0211130E+00   -2.0211130E+00
 1.7700    5.0461111E-02    1.9866127E+00   -1.9866127E+00
 1.7800    4.9041205E-02    1.9525897E+00   -1.9525897E+00
 1.7900    4.7661586E-02    1.9190417E+00   -1.9190417E+00
 1.8000    4.6321111E-02    1.8859659E+00   -1.8859659E+00
 1.8100    4.5018662E-02    1.8533592E+00   -1.8533592E+00
 1.8200    4.3753152E-02    1.8212182E+00   -1.8212182E+00
 1.8300    4.2523512E-02    1.7895390E+00   -1.7895390E+00
 1.8400    4.1328688E-02    1.7583168E+00   -1.7583168E+00
 1.8500    4.0167646E-02    1.7275463E+00   -1.7275463E+00
 1.8600    3.9039375E-02    1.6972218E+00   -1.6972218E+00
 1.8700    3.7942902E-02    1.6673379E+00   -1.6673379E+00
 1.8800    3.6877293E-02    1.6378895E+00   -1.6378895E+00
 1.8900    3.5841647E-02    1.6088718E+00   -1.6088718E+00
 1.9000    3.4835093E-02    1.5802800E+00   -1.5802800E+00
 1.9100    3.3856781E-02    1.5521092E+00   -1.5521092E+00
 1.9200    3.2905886E-02    1.5243542E+00   -1.5243542E+00
 1.9300    3.1981609E-02    1.4970103E+00   -1.4970103E+00
 1.9400    3.1083181E-02    1.4700726E+00   -1.4700726E+00
 1.9500    3.0209863E-02    1.4435367E+00   -1.4435367E+00
 1.9600    2.9360939E-02    1.4173984E+00   -1.4173984E+00
 1.9700    2.8535715E-02    1.3916533E+00   -1.3916533E+00
 1.9800    2.7733518E-02    1.3662973E+00   -1.3662973E+00
 1.9900    2.6953700E-02    1.3413262E+00   -1.3413262E+00
 2.0000    2.6195632E-02    1.3167361E+00   -1.3167361E+00
 2.0100    2.5458713E-02    1.2925235E+00   -1.2925235E+00
 2.0200    2.4742363E-02    1.2686849E+00   -1.2686849E+00
 2.0300    2.4046020E-02    1.2452173E+00   -1.2452173E+00
 2.0400    2.3369141E-02    1.2221175E+00   -1.2221175E+00
 2.0500    2.2711201E-02    1.1993824E+00   -1.1993824E+00
 2.0600    2.2071690E-02    1.1770093E+00   -1.1770093E+00
 2.0700    2.1450113E-02    1.1549951E+00   -1.1549951E+00
 2.0800    2.0845993E-02    1.1333372E+00   -1.1333372E+00
 2.0900    2.0258865E-02    1.1120327E+00   -1.1120327E+00
 2.1000    1.9688279E-02    1.0910790E+00   -1.0910790E+00
 2.1100    1.9133795E-02    1.0704734E+00   -1.0704734E+00
 2.1200    1.8594989E-02    1.0502133E+00   -1.0502133E+00
 2.1300    1.8071444E-02    1.0302958E+00   -1.0302958E+00
 2.1400    1.7562752E-02    1.0107179E+00   -1.0107179E+00
 2.1500    1.7068510E-02    9.9147644E-01   -9.9147644E-01
 2.1600    1.6588321E-02    9.7256758E-01   -9.7256758E-01
 2.1700    1.6121792E-02    9.5398741E-01   -9.5398741E-01
 2.1800    1.5668541E-02    9.3573187E-01   -9.3573187E-01
 2.1900    1.5228198E-02    9.1779697E-01   -9.1779697E-01
 2.2000    1.4800403E-02    9.0017880E-01   -9.0017880E-01
 2.2100    1.4384809E-02    8.8287355E-01   -8.8287355E-01
 2.2200    1.3981075E-02    8.6587734E-01   -8.6587734E-01
 2.2300    1.3588868E-02    8.4918606E-01   -8.4918606E-01
 2.2400    1.3207858E-02    8.3279534E-01   -8.3279534E-01
 2.2500    1.2837723E-02    8.1670062E-01   -8.1670062E-01
 2.2600    1.2478147E-02    8.0089730E-01   -8.0089730E-01
 2.2700    1.2128824E-02    7.8538081E-01   -7.8538081E-01
 2.2800    1.1789457E-02    7.7014653E-01   -7.7014653E-01
 2.2900    1.1459752E-02    7.5518970E-01   -7.5518970E-01
 2.3000    1.1139423E-02    7.4050542E-01   -7.4050542E-01
 2.3100    1.0828190E-02    7.2608874E-01   -7.2608874E-01
 2.3200    1.0525782E-02    7.1193479E-01   -7.1193479E-01
 2.3300    1.0231938E-02    6.9803884E-01   -6.9803884E-01
 2.3400    9.9464028E-03    6.8439625E-01   -6.8439625E-01
 2.3500    9.6689324E-03    6.7100246E-01   -6.7100246E-01
 2.3600    9.3992885E-03    6.5785299E-01   -6.5785299E-01
 2.3700    9.1372424E-03    6.4494355E-01   -6.4494355E-01
 2.3800    8.8825738E-03    6.3227004E-01   -6.3227004E-01
 2.3900    8.6350696E-03    6.1982845E-01   -6.1982845E-01
 2.4000    8.3945216E-03    6.0761474E-01   -6.0761474E-01
 2.4100    8.1607254E-03    5.9562472E-01   -5.9562472E-01
 2.4200    7.9334816E-03    5.8385421E-01   -5.8385421E-01
 2.4300    7.7125984E-03    5.7229919E-01   -5.7229919E-01
 2.4400    7.4978931E-03    5.6095595E-01   -5.6095595E-01
 2.4500    7.2891920E-03    5.4982113E-01   -5.4982113E-01
 2.4600    7.0863288E-03    5.3889155E-01   -5.3889155E-01
 2.4700    6.8891420E-03    5.2816413E-01   -5.2816413E-01
 2.4800    6.6974743E-03    5.1763577E-01   -5.1763577E-01
 2.4900    6.5111725E-03    5.0730338E-01   -5.0730338E-01
 2.5000    6.3300874E-03    4.9716390E-01   -4.9716390E-01
 2.5100    6.1540739E-03    4.8721429E-01   -4.8721429E-01
 2.5200    5.9829906E-03    4.7745151E-01   -4.7745151E-01
 2.5300    5.8167000E-03    4.6787255E-01   -4.6787255E-01
 2.5400    5.6550693E-03    4.5847455E-01   -4.5847455E-01
 2.5500    5.4979712E-03    4.4925475E-01   -4.4925475E-01
 2.5600    5.3452831E-03    4.4021061E-01   -4.4021061E-01
 2.5700    5.1968864E-03    4.3133960E-01   -4.3133960E-01
 2.5800    5.0526646E-03    4.2263917E-01   -4.2263917E-01
 2.5900    4.9125032E-03    4.1410668E-01   -4.1410668E-01
 2.6000    4.7762900E-03    4.0573946E-01   -4.0573946E-01
 2.6100    4.6439158E-03    3.9753486E-01   -3.9753486E-01
 2.6200    4.5152746E-03    3.8949027E-01   -3.8949027E-01
 2.6300    4.3902616E-03    3.8160298E-01   -3.8160298E-01
 2.6400    4.2687726E-03    3.7387010E-01   -3.7387010E-01
 2.6500    4.1507036E-03    3.6628854E-01   -3.6628854E-01
 2.6600    4.0359538E-03    3.5885527E-01   -3.5885527E-01
 2.6700    3.9244287E-03    3.5156759E-01   -3.5156759E-01
 2.6800    3.8160414E-03    3.4442331E-01   -3.4442331E-01
 2.6900    3.7107104E-03    3.3742052E-01   -3.3742052E-01
 2.7000    3.6083549E-03    3.3055721E-01   -3.3055721E-01
 2.7100    3.5088914E-03    3.2383097E-01   -3.2383097E-01
 2.7200    3.4122337E-03    3.1723891E-01   -3.1723891E-01
 2.7300    3.3182956E-03    3.1077797E-01   -3.1077797E-01
 2.7400    3.2269941E-03    3.0444522E-01   -3.0444522E-01
 2.7500    3.1382510E-03    2.9823797E-01   -2.9823797E-01
 2.7600    3.0519921E-03    2.9215373E-01   -2.9215373E-01
 2.7700    2.9681450E-03    2.8619004E-01   -2.8619004E-01
 2.7800    2.8866382E-03    2.8034435E-01   -2.8034435E-01
 2.7900    2.8074019E-03    2.7461412E-01   -2.7461412E-01
 2.8000    2.7303688E-03    2.6899687E-01   -2.6899687E-01
 2.8100    2.6554750E-03    2.6349036E-01   -2.6349036E-01
 2.8200    2.5826602E-03    2.5809248E-01   -2.5809248E-01
 2.8300    2.5118662E-03    2.5280126E-01   -2.5280126E-01
 2.8400    2.4430361E-03    2.4761471E-01   -2.4761471E-01
 2.8500    2.3761133E-03    2.4253070E-01   -2.4253070E-01
 2.8600    2.3110403E-03    2.3754695E-01   -2.3754695E-01
 2.8700    2.2477598E-03    2.3266098E-01   -2.3266098E-01
 2.8800    2.1862159E-03    2.2787038E-01   -2.2787038E-01
 2.8900    2.1263566E-03    2.2317300E-01   -2.2317300E-01
 2.9000    2.0681357E-03    2.1856715E-01   -2.1856715E-01
 2.9100    2.0115121E-03    2.1405161E-01   -2.1405161E-01
 2.9200    1.9564470E-03    2.0962528E-01   -2.0962528E-01
 2.9300    1.9028999E-03    2.0528681E-01   -2.0528681E-01
 2.9400    1.8508269E-03    2.0103437E-01   -2.0103437E-01
 2.9500    1.8001823E-03    1.9686585E-01   -1.9686585E-01
 2.9600    1.7509227E-03    1.9277924E-01   -1.9277924E-01
 2.9700    1.7030104E-03    1.8877308E-01   -1.8877308E-01
 2.9800    1.6564135E-03    1.8484646E-01   -1.8484646E-01
 2.9900    1.6111029E-03    1.8099872E-01   -1.8099872E-01
 3.0000    1.5670475E-03    1.7722890E-01   -1.7722890E-01
 3.0100    1.5242130E-03    1.7353557E-01   -1.7353557E-01
 3.0200    1.4825629E-03    1.6991702E-01   -1.6991702E-01
 3.0300    1.4420626E-03    1.6637162E-01   -1.6637162E-01
 3.0400    1.4026808E-03    1.6289804E-01   -1.6289804E-01
 3.0500    1.3643888E-03    1.5949522E-01   -1.5949522E-01
 3.0600    1.3271585E-03    1.5616205E-01   -1.5616205E-01
 3.0700    1.2909605E-03    1.5289722E-01   -1.5289722E-01
 3.0800    1.2557650E-03    1.4969926E-01   -1.4969926E-01
 3.0900    1.2215428E-03    1.4656677E-01   -1.4656677E-01
 3.1000    1.1882678E-03    1.4349857E-01   -1.4349857E-01
 3.1100    1.1559154E-03    1.4049365E-01   -1.4049365E-01
 3.1200    1.1244619E-03    1.3755101E-01   -1.3755101E-01
 3.1300    1.0938821E-03    1.3466944E-01   -1.3466944E-01
 3.1400    1.0641493E-03    1.3184745E-01   -1.3184745E-01
 3.1500    1.0352362E-03    1.2908341E-01   -1.2908341E-01
 3.1600    1.0071170E-03    1.2637581E-01   -1.2637581E-01
 3.1700    9.7976875E-04    1.2372344E-01   -1.2372344E-01
 3.1800    9.5317130E-04    1.2112535E-01   -1.2112535E-01
 3.1900    9.2730632E-04    1.1858082E-01   -1.1858082E-01
 3.2000    9.0215574E-04    1.1608907E-01   -1.1608907E-01
 3.2100    8.7770037E-04    1.1364915E-01   -1.1364915E-01
 3.2200    8.5391961E-04    1.1125988E-01   -1.1125988E-01
 3.2300    8.3079207E-04    1.0891990E-01   -1.0891990E-01
 3.2400    8.0829696E-04    1.0662789E-01   -1.0662789E-01
 3.2500    7.8641526E-04    1.0438270E-01   -1.0438270E-01
 3.2600    7.6513024E-04    1.0218342E-01   -1.0218342E-01
 3.2700    7.4442684E-04    1.0002934E-01   -1.0002934E-01
 3.2800    7.2429011E-04    9.7919707E-02   -9.7919707E-02
 3.2900    7.0470349E-04    9.5853523E-02   -9.5853523E-02
 3.3000    6.8564822E-04    9.3829433E-02   -9.3829433E-02
 3.3100    6.6710475E-04    9.1845924E-02   -9.1845924E-02
 3.3200    6.4905556E-04    8.9901700E-02   -8.9901700E-02
 3.3300    6.3148727E-04    8.7995999E-02   -8.7995999E-02
 3.3400    6.1439046E-04    8.6128575E-02   -8.6128575E-02
 3.3500    5.9775719E-04    8.4299362E-02   -8.4299362E-02
 3.3600    5.8157804E-04    8.2508068E-02   -8.2508068E-02
