# total charge: 9.000000 
# r(A)     rho (e/A^3)     4*pi*r^2*rho(e/A)  dip  
 0.0000    2.7955779E+00    0.0000000E+00    7.1809610E+01
 0.0100    2.7933929E+00    3.5102810E-03    7.1447948E+01
 0.0200    2.7906341E+00    1.4027257E-02    7.0373658E+01
 0.0300    2.7871880E+00    3.1522354E-02    6.8618284E+01
 0.0400    2.7829354E+00    5.5954236E-02    6.6232671E+01
 0.0500    2.7777476E+00    8.7265514E-02    6.3284493E+01
 0.0600    2.7714838E+00    1.2537897E-01    5.9855050E+01
 0.0700    2.7640031E+00    1.7019409E-01    5.6035514E+01
 0.0800    2.7551944E+00    2.2158588E-01    5.1922894E+01
 0.0900    2.7450060E+00    2.7940758E-01    4.7615937E+01
 0.1000    2.7334547E+00    3.4349605E-01    4.3211234E+01
 0.1100    2.7206087E+00    4.1367694E-01    3.8799715E+01
 0.1200    2.7065584E+00    4.8976727E-01    3.4463723E+01
 0.1300    2.6913926E+00    5.7157553E-01    3.0274771E+01
 0.1400    2.6751881E+00    6.5890114E-01    2.6292043E+01
 0.1500    2.6580108E+00    7.5153484E-01    2.2561632E+01
 0.1600    2.6399231E+00    8.4926084E-01    1.9116489E+01
 0.1700    2.6209898E+00    9.5185993E-01    1.5976974E+01
 0.1800    2.6012792E+00    1.0591119E+00    1.3151917E+01
 0.1900    2.5808580E+00    1.1707959E+00    1.0640051E+01
 0.2000    2.5597867E+00    1.2866892E+00    8.4316848E+00
 0.2100    2.5381170E+00    1.4065659E+00    6.5104813E+00
 0.2200    2.5158959E+00    1.5301989E+00    4.8552278E+00
 0.2300    2.4931726E+00    1.6573639E+00    3.4415029E+00
 0.2400    2.4700021E+00    1.7878442E+00    2.2431712E+00
 0.2500    2.4464433E+00    1.9214321E+00    1.2336620E+00
 0.2600    2.4225510E+00    2.0579247E+00    3.8700976E-01
 0.2700    2.3983691E+00    2.1971182E+00   -3.2134993E-01
 0.2800    2.3739311E+00    2.3388051E+00   -9.1402385E-01
 0.2900    2.3492660E+00    2.4827789E+00   -1.4113231E+00
 0.3000    2.3244084E+00    2.6288440E+00   -1.8311113E+00
 0.3100    2.2994044E+00    2.7768256E+00   -2.1887982E+00
 0.3200    2.2743104E+00    2.9265743E+00   -2.4974384E+00
 0.3300    2.2491853E+00    3.0779601E+00   -2.7678977E+00
 0.3400    2.2240804E+00    3.2308602E+00   -3.0090608E+00
 0.3500    2.1990303E+00    3.3851442E+00   -3.2280613E+00
 0.3600    2.1740524E+00    3.5406652E+00   -3.4305229E+00
 0.3700    2.1491519E+00    3.6972638E+00   -3.6208033E+00
 0.3800    2.1243334E+00    3.8547812E+00   -3.8022308E+00
 0.3900    2.0996094E+00    4.0130778E+00   -3.9773198E+00
 0.4000    2.0750037E+00    4.1720426E+00   -4.1479531E+00
 0.4100    2.0505450E+00    4.3315854E+00   -4.3155183E+00
 0.4200    2.0262538E+00    4.4916126E+00   -4.4810028E+00
 0.4300    2.0021329E+00    4.6519996E+00   -4.6450633E+00
 0.4400    1.9781660E+00    4.8125799E+00   -4.8080902E+00
 0.4500    1.9543257E+00    4.9731531E+00   -4.9702761E+00
 0.4600    1.9305830E+00    5.1335053E+00   -5.1316799E+00
 0.4700    1.9069152E+00    5.2934275E+00   -5.2922809E+00
 0.4800    1.8833107E+00    5.4527340E+00   -5.4520209E+00
 0.4900    1.8597700E+00    5.6112714E+00   -5.6108324E+00
 0.5000    1.8362996E+00    5.7689055E+00   -5.7686379E+00
 0.5100    1.8128997E+00    5.9254862E+00   -5.9253247E+00
 0.5200    1.7895576E+00    6.0808210E+00   -6.0807245E+00
 0.5300    1.7662521E+00    6.2346820E+00   -6.2346249E+00
 0.5400    1.7429599E+00    6.3868214E+00   -6.3867880E+00
 0.5500    1.7196501E+00    6.5369524E+00   -6.5369330E+00
 0.5600    1.6962732E+00    6.6846969E+00   -6.6846857E+00
 0.5700    1.6727616E+00    6.8295743E+00   -6.8295679E+00
 0.5800    1.6490541E+00    6.9710912E+00   -6.9710877E+00
 0.5900    1.6251312E+00    7.1088986E+00   -7.1088967E+00
 0.6000    1.6010325E+00    7.2429002E+00   -7.2428991E+00
 0.6100    1.5768392E+00    7.3732156E+00   -7.3732150E+00
 0.6200    1.5526314E+00    7.5000058E+00   -7.5000054E+00
 0.6300    1.5284462E+00    7.6232666E+00   -7.6232665E+00
 0.6400    1.5042613E+00    7.7427116E+00   -7.7427115E+00
 0.6500    1.4800059E+00    7.8577828E+00   -7.8577827E+00
 0.6600    1.4555865E+00    7.9677509E+00   -7.9677509E+00
 0.6700    1.4309162E+00    8.0718607E+00   -8.0718607E+00
 0.6800    1.4059454E+00    8.1695125E+00   -8.1695124E+00
 0.6900    1.3806862E+00    8.2604370E+00   -8.2604370E+00
 0.7000    1.3552116E+00    8.3447446E+00   -8.3447446E+00
 0.7100    1.3296210E+00    8.4227598E+00   -8.4227598E+00
 0.7200    1.3039924E+00    8.4947366E+00   -8.4947366E+00
 0.7300    1.2783556E+00    8.5606601E+00   -8.5606601E+00
 0.7400    1.2526964E+00    8.6202357E+00   -8.6202357E+00
 0.7500    1.2269775E+00    8.6729931E+00   -8.6729931E+00
 0.7600    1.2011558E+00    8.7183923E+00   -8.7183923E+00
 0.7700    1.1751951E+00    8.7559098E+00   -8.7559098E+00
 0.7800    1.1490765E+00    8.7851262E+00   -8.7851262E+00
 0.7900    1.1228071E+00    8.8058077E+00   -8.8058077E+00
 0.8000    1.0964230E+00    8.8179569E+00   -8.8179569E+00
 0.8100    1.0699878E+00    8.8218310E+00   -8.8218310E+00
 0.8200    1.0435848E+00    8.8179030E+00   -8.8179030E+00
 0.8300    1.0172969E+00    8.8067117E+00   -8.8067117E+00
 0.8400    9.9117656E-01    8.7885952E+00   -8.7885952E+00
 0.8500    9.6522223E-01    8.7634483E+00   -8.7634483E+00
 0.8600    9.3938500E-01    8.7307266E+00   -8.7307266E+00
 0.8700    9.1360828E-01    8.6897723E+00   -8.6897723E+00
 0.8800    8.8787536E-01    8.6402680E+00   -8.6402680E+00
 0.8900    8.6223046E-01    8.5824886E+00   -8.5824886E+00
 0.9000    8.3676111E-01    8.5171907E+00   -8.5171907E+00
 0.9100    8.1156134E-01    8.4452790E+00   -8.4452790E+00
 0.9200    7.8670471E-01    8.3675299E+00   -8.3675299E+00
 0.9300    7.6223915E-01    8.2845136E+00   -8.2845136E+00
 0.9400    7.3819355E-01    8.1966392E+00   -8.1966392E+00
 0.9500    7.1458328E-01    8.1041958E+00   -8.1041958E+00
 0.9600    6.9141498E-01    8.0073925E+00   -8.0073925E+00
 0.9700    6.6869760E-01    7.9064785E+00   -7.9064785E+00
 0.9800    6.4645625E-01    7.8019139E+00   -7.8019139E+00
 0.9900    6.2473410E-01    7.6944125E+00   -7.6944125E+00
 1.0000    6.0357520E-01    7.5847496E+00   -7.5847496E+00
 1.0100    5.8299989E-01    7.4734491E+00   -7.4734491E+00
 1.0200    5.6299077E-01    7.3605706E+00   -7.3605706E+00
 1.0300    5.4349756E-01    7.2457261E+00   -7.2457261E+00
 1.0400    5.2445890E-01    7.1283334E+00   -7.1283334E+00
 1.0500    5.0583321E-01    7.0080275E+00   -7.0080275E+00
 1.0600    4.8762382E-01    6.8850407E+00   -6.8850407E+00
 1.0700    4.6988116E-01    6.7602919E+00   -6.7602919E+00
 1.0800    4.5267779E-01    6.6350860E+00   -6.6350860E+00
 1.0900    4.3607476E-01    6.5106419E+00   -6.5106419E+00
 1.1000    4.2010331E-01    6.3878004E+00   -6.3878004E+00
 1.1100    4.0476826E-01    6.2670372E+00   -6.2670372E+00
 1.1200    3.9005978E-01    6.1486119E+00   -6.1486119E+00
 1.1300    3.7595955E-01    6.0326464E+00   -6.0326464E+00
 1.1400    3.6244136E-01    5.9191224E+00   -5.9191224E+00
 1.1500    3.4947366E-01    5.8079115E+00   -5.8079115E+00
 1.1600    3.3702578E-01    5.6988728E+00   -5.6988728E+00
 1.1700    3.2507277E-01    5.5919358E+00   -5.5919358E+00
 1.1800    3.1359426E-01    5.4870888E+00   -5.4870888E+00
 1.1900    3.0257016E-01    5.3843078E+00   -5.3843078E+00
 1.2000    2.9197839E-01    5.2835166E+00   -5.2835166E+00
 1.2100    2.8179671E-01    5.1846151E+00   -5.1846151E+00
 1.2200    2.7200583E-01    5.0875388E+00   -5.0875388E+00
 1.2300    2.6259089E-01    4.9922892E+00   -4.9922892E+00
 1.2400    2.5354023E-01    4.8989173E+00   -4.8989173E+00
 1.2500    2.4484274E-01    4.8074759E+00   -4.8074759E+00
 1.2600    2.3648526E-01    4.7179685E+00   -4.7179685E+00
 1.2700    2.2845107E-01    4.6303147E+00   -4.6303147E+00
 1.2800    2.2071973E-01    4.5443414E+00   -4.5443414E+00
 1.2900    2.1326878E-01    4.4598123E+00   -4.4598123E+00
 1.3000    2.0607715E-01    4.3764947E+00   -4.3764947E+00
 1.3100    1.9912902E-01    4.2942469E+00   -4.2942469E+00
 1.3200    1.9241637E-01    4.2130805E+00   -4.2130805E+00
 1.3300    1.8593786E-01    4.1331482E+00   -4.1331482E+00
 1.3400    1.7969396E-01    4.0546461E+00   -4.0546461E+00
 1.3500    1.7368141E-01    3.9776883E+00   -3.9776883E+00
 1.3600    1.6789079E-01    3.9022453E+00   -3.9022453E+00
 1.3700    1.6230920E-01    3.8281957E+00   -3.8281957E+00
 1.3800    1.5692572E-01    3.7554515E+00   -3.7554515E+00
 1.3900    1.5173542E-01    3.6840577E+00   -3.6840577E+00
 1.4000    1.4673817E-01    3.6141737E+00   -3.6141737E+00
 1.4100    1.4193234E-01    3.5459242E+00   -3.5459242E+00
 1.4200    1.3730792E-01    3.4792220E+00   -3.4792220E+00
 1.4300    1.3284525E-01    3.4137206E+00   -3.4137206E+00
 1.4400    1.2852181E-01    3.3489732E+00   -3.3489732E+00
 1.4500    1.2432225E-01    3.2846927E+00   -3.2846927E+00
 1.4600    1.2024377E-01    3.2209068E+00   -3.2209068E+00
 1.4700    1.1629283E-01    3.1578934E+00   -3.1578934E+00
 1.4800    1.1247716E-01    3.0959765E+00   -3.0959765E+00
 1.4900    1.0879971E-01    3.0353594E+00   -3.0353594E+00
 1.5000    1.0525800E-01    2.9760999E+00   -2.9760999E+00
 1.5100    1.0184731E-01    2.9181884E+00   -2.9181884E+00
 1.5200    9.8563112E-02    2.8616166E+00   -2.8616166E+00
 1.5300    9.5400364E-02    2.8063560E+00   -2.8063560E+00
 1.5400    9.2350583E-02    2.7522694E+00   -2.7522694E+00
 1.5500    8.9400539E-02    2.6990653E+00   -2.6990653E+00
 1.5600    8.6535281E-02    2.6463804E+00   -2.6463804E+00
 1.5700    8.3743910E-02    2.5939548E+00   -2.5939548E+00
 1.5800    8.1023519E-02    2.5417635E+00   -2.5417635E+00
 1.5900    7.8378418E-02    2.4900072E+00   -2.4900072E+00
 1.6000    7.5816100E-02    2.4389970E+00   -2.4389970E+00
 1.6100    7.3343300E-02    2.3890325E+00   -2.3890325E+00
 1.6200    7.0963769E-02    2.3403271E+00   -2.3403271E+00
 1.6300    6.8677368E-02    2.2929718E+00   -2.2929718E+00
 1.6400    6.6480042E-02    2.2469264E+00   -2.2469264E+00
 1.6500    6.4364878E-02    2.2020476E+00   -2.2020476E+00
 1.6600    6.2324026E-02    2.1581496E+00   -2.1581496E+00
 1.6700    6.0350378E-02    2.1150605E+00   -2.1150605E+00
 1.6800    5.8438151E-02    2.0726449E+00   -2.0726449E+00
 1.6900    5.6582662E-02    2.0307976E+00   -2.0307976E+00
 1.7000    5.4780307E-02    1.9894461E+00   -1.9894461E+00
 1.7100    5.3029095E-02    1.9485713E+00   -1.9485713E+00
 1.7200    5.1329032E-02    1.9082261E+00   -1.9082261E+00
 1.7300    4.9681565E-02    1.8685182E+00   -1.8685182E+00
 1.7400    4.8088215E-02    1.8295615E+00   -1.8295615E+00
 1.7500    4.6549390E-02    1.7914305E+00   -1.7914305E+00
 1.7600    4.5064064E-02    1.7541452E+00   -1.7541452E+00
 1.7700    4.3630144E-02    1.7176831E+00   -1.7176831E+00
 1.7800    4.2244958E-02    1.6819952E+00   -1.6819952E+00
 1.7900    4.0905582E-02    1.6470186E+00   -1.6470186E+00
 1.8000    3.9609157E-02    1.6126885E+00   -1.6126885E+00
 1.8100    3.8353276E-02    1.5789540E+00   -1.5789540E+00
 1.8200    3.7136292E-02    1.5457924E+00   -1.5457924E+00
 1.8300    3.5957402E-02    1.5132140E+00   -1.5132140E+00
 1.8400    3.4816452E-02    1.4812557E+00   -1.4812557E+00
 1.8500    3.3713505E-02    1.4499640E+00   -1.4499640E+00
 1.8600    3.2648312E-02    1.4193728E+00   -1.4193728E+00
 1.8700    3.1619937E-02    1.3894857E+00   -1.3894857E+00
 1.8800    3.0626791E-02    1.3602761E+00   -1.3602761E+00
 1.8900    2.9667087E-02    1.3317061E+00   -1.3317061E+00
 1.9000    2.8739285E-02    1.3037461E+00   -1.3037461E+00
 1.9100    2.7842105E-02    1.2763761E+00   -1.2763761E+00
 1.9200    2.6974152E-02    1.2495687E+00   -1.2495687E+00
 1.9300    2.6133697E-02    1.2232785E+00   -1.2232785E+00
 1.9400    2.5319098E-02    1.1974615E+00   -1.1974615E+00
 1.9500    2.4529578E-02    1.1721121E+00   -1.1721121E+00
 1.9600    2.3765554E-02    1.1472814E+00   -1.1472814E+00
 1.9700    2.3027985E-02    1.1230478E+00   -1.1230478E+00
 1.9800    2.2317145E-02    1.0994586E+00   -1.0994586E+00
 1.9900    2.1631818E-02    1.0764876E+00   -1.0764876E+00
 2.0000    2.0969524E-02    1.0540432E+00   -1.0540432E+00
 2.0100    2.0327531E-02    1.0320164E+00   -1.0320164E+00
 2.0200    1.9703878E-02    1.0103325E+00   -1.0103325E+00
 2.0300    1.9097809E-02    9.8897537E-01   -9.8897537E-01
 2.0400    1.8509604E-02    9.6798212E-01   -9.6798212E-01
 2.0500    1.7940059E-02    9.4741759E-01   -9.4741759E-01
 2.0600    1.7389814E-02    9.2734052E-01   -9.2734052E-01
 2.0700    1.6858684E-02    9.0776665E-01   -9.0776665E-01
 2.0800    1.6345221E-02    8.8864299E-01   -8.8864299E-01
 2.0900    1.5846900E-02    8.6985477E-01   -8.6985477E-01
 2.1000    1.5361070E-02    8.5127506E-01   -8.5127506E-01
 2.1100    1.4886206E-02    8.3283467E-01   -8.3283467E-01
 2.1200    1.4422634E-02    8.1456578E-01   -8.1456578E-01
 2.1300    1.3972152E-02    7.9658545E-01   -7.9658545E-01
 2.1400    1.3536812E-02    7.7902933E-01   -7.7902933E-01
 2.1500    1.3117702E-02    7.6198173E-01   -7.6198173E-01
 2.1600    1.2714450E-02    7.4544389E-01   -7.4544389E-01
 2.1700    1.2325539E-02    7.2934874E-01   -7.2934874E-01
 2.1800    1.1949047E-02    7.1360211E-01   -7.1360211E-01
 2.1900    1.1583365E-02    6.9812442E-01   -6.9812442E-01
 2.2000    1.1227596E-02    6.8287626E-01   -6.8287626E-01
 2.2100    1.0881586E-02    6.6786179E-01   -6.6786179E-01
 2.2200    1.0545652E-02    6.5311438E-01   -6.5311438E-01
 2.2300    1.0220238E-02    6.3867602E-01   -6.3867602E-01
 2.2400    9.9056575E-03    6.2458163E-01   -6.2458163E-01
 2.2500    9.6019754E-03    6.1085128E-01   -6.1085128E-01
 2.2600    9.3089843E-03    5.9748780E-01   -5.9748780E-01
 2.2700    9.0262349E-03    5.8447805E-01   -5.8447805E-01
 2.2800    8.7531251E-03    5.7179808E-01   -5.7179808E-01
 2.2900    8.4890209E-03    5.5942057E-01   -5.5942057E-01
 2.3000    8.2333434E-03    5.4732057E-01   -5.4732057E-01
 2.3100    7.9855863E-03    5.3547676E-01   -5.3547676E-01
 2.3200    7.7452881E-03    5.2386986E-01   -5.2386986E-01
 2.3300    7.5120204E-03    5.1248182E-01   -5.1248182E-01
 2.3400    7.2854264E-03    5.0129867E-01   -5.0129867E-01
 2.3500    7.0652926E-03    4.9031563E-01   -4.9031563E-01
 2.3600    6.8515944E-03    4.7954074E-01   -4.7954074E-01
 2.3700    6.6444568E-03    4.6899265E-01   -4.6899265E-01
 2.3800    6.4440218E-03    4.5869159E-01   -4.5869159E-01
 2.3900    6.2502822E-03    4.4864754E-01   -4.4864754E-01
 2.4000    6.0629869E-03    4.3885291E-01   -4.3885291E-01
 2.4100    5.8816865E-03    4.2928510E-01   -4.2928510E-01
 2.4200    5.7058908E-03    4.1991757E-01   -4.1991757E-01
 2.4300    5.5352340E-03    4.1073186E-01   -4.1073186E-01
 2.4400    5.3695399E-03    4.0172290E-01   -4.0172290E-01
 2.4500    5.2087695E-03    3.9289561E-01   -3.9289561E-01
 2.4600    5.0529148E-03    3.8425724E-01   -3.8425724E-01
 2.4700    4.9019267E-03    3.7581195E-01   -3.7581195E-01
 2.4800    4.7557041E-03    3.6755984E-01   -3.6755984E-01
 2.4900    4.6141095E-03    3.5949798E-01   -3.5949798E-01
 2.5000    4.4769679E-03    3.5162024E-01   -3.5162024E-01
 2.5100    4.3440513E-03    3.4391590E-01   -3.4391590E-01
 2.5200    4.2150816E-03    3.3636975E-01   -3.3636975E-01
 2.5300    4.0897790E-03    3.2896580E-01   -3.2896580E-01
 2.5400    3.9679367E-03    3.2169331E-01   -3.2169331E-01
 2.5500    3.8494757E-03    3.1455153E-01   -3.1455153E-01
 2.5600    3.7344311E-03    3.0754895E-01   -3.0754895E-01
 2.5700    3.6228703E-03    3.0069687E-01   -3.0069687E-01
 2.5800    3.5147948E-03    2.9400130E-01   -2.9400130E-01
 2.5900    3.4100968E-03    2.8745913E-01   -2.8745913E-01
 2.6000    3.3085978E-03    2.8106097E-01   -2.8106097E-01
 2.6100    3.2101273E-03    2.7479773E-01   -2.7479773E-01
 2.6200    3.1145730E-03    2.6866492E-01   -2.6866492E-01
 2.6300    3.0218637E-03    2.6266139E-01   -2.6266139E-01
 2.6400    2.9319163E-03    2.5678478E-01   -2.5678478E-01
 2.6500    2.8446088E-03    2.5102916E-01   -2.5102916E-01
 2.6600    2.7598163E-03    2.4538799E-01   -2.4538799E-01
 2.6700    2.6774698E-03    2.3985952E-01   -2.3985952E-01
 2.6800    2.5975763E-03    2.3444867E-01   -2.3444867E-01
 2.6900    2.5201718E-03    2.2916304E-01   -2.2916304E-01
 2.7000    2.4452521E-03    2.2400671E-01   -2.2400671E-01
 2.7100    2.3727410E-03    2.1897714E-01   -2.1897714E-01
 2.7200    2.3025179E-03    2.1406748E-01   -2.1406748E-01
 2.7300    2.2344739E-03    2.0927167E-01   -2.0927167E-01
 2.7400    2.1685477E-03    2.0458791E-01   -2.0458791E-01
 2.7500    2.1047145E-03    2.0001771E-01   -2.0001771E-01
 2.7600    2.0429419E-03    1.9556180E-01   -1.9556180E-01
 2.7700    1.9831575E-03    1.9121705E-01   -1.9121705E-01
 2.7800    1.9252595E-03    1.8697723E-01   -1.8697723E-01
 2.7900    1.8691577E-03    1.8283705E-01   -1.8283705E-01
 2.8000    1.8148086E-03    1.7879557E-01   -1.7879557E-01
 2.8100    1.7622091E-03    1.7485576E-01   -1.7485576E-01
 2.8200    1.7113464E-03    1.7101965E-01   -1.7101965E-01
 2.8300    1.6621354E-03    1.6728197E-01   -1.6728197E-01
 2.8400    1.6143930E-03    1.6362732E-01   -1.6362732E-01
 2.8500    1.5678866E-03    1.6003472E-01   -1.6003472E-01
 2.8600    1.5224440E-03    1.5648880E-01   -1.5648880E-01
 2.8700    1.4780536E-03    1.5299028E-01   -1.5299028E-01
 2.8800    1.4348745E-03    1.4955769E-01   -1.4955769E-01
 2.8900    1.3931361E-03    1.4621741E-01   -1.4621741E-01
 2.9000    1.3529864E-03    1.4298790E-01   -1.4298790E-01
 2.9100    1.3143809E-03    1.3986758E-01   -1.3986758E-01
 2.9200    1.2770749E-03    1.3683334E-01   -1.3683334E-01
 2.9300    1.2407203E-03    1.3385018E-01   -1.3385018E-01
 2.9400    1.2050128E-03    1.3088691E-01   -1.3088691E-01
 2.9500    1.1698158E-03    1.2792970E-01   -1.2792970E-01
 2.9600    1.1351961E-03    1.2498681E-01   -1.2498681E-01
 2.9700    1.1013620E-03    1.2208235E-01   -1.2208235E-01
 2.9800    1.0685456E-03    1.1924370E-01   -1.1924370E-01
 2.9900    1.0368987E-03    1.1648998E-01   -1.1648998E-01
 3.0000    1.0064475E-03    1.1382653E-01   -1.1382653E-01
 3.0100    9.7710899E-04    1.1124637E-01   -1.1124637E-01
 3.0200    9.4874410E-04    1.0873587E-01   -1.0873587E-01
 3.0300    9.2121666E-04    1.0628131E-01   -1.0628131E-01
 3.0400    8.9443681E-04    1.0387396E-01   -1.0387396E-01
 3.0500    8.6837692E-04    1.0151210E-01   -1.0151210E-01
 3.0600    8.4305934E-04    9.9199815E-02   -9.9199815E-02
 3.0700    8.1852635E-04    9.6943630E-02   -9.6943630E-02
 3.0800    7.9480789E-04    9.4748745E-02   -9.4748745E-02
 3.0900    7.7189848E-04    9.2616211E-02   -9.2616211E-02
 3.1000    7.4974814E-04    9.0541701E-02   -9.0541701E-02
 3.1100    7.2827047E-04    8.8516319E-02   -8.8516319E-02
 3.1200    7.0736880E-04    8.6529651E-02   -8.6529651E-02
 3.1300    6.8697059E-04    8.4573963E-02   -8.4573963E-02
 3.1400    6.6705033E-04    8.2647127E-02   -8.2647127E-02
 3.1500    6.4762654E-04    8.0752432E-02   -8.0752432E-02
 3.1600    6.2873792E-04    7.8895763E-02   -7.8895763E-02
 3.1700    6.1041688E-04    7.7082346E-02   -7.7082346E-02
 3.1800    5.9267530E-04    7.5314905E-02   -7.5314905E-02
 3.1900    5.7550493E-04    7.3593639E-02   -7.3593639E-02
 3.2000    5.5888650E-04    7.1917311E-02   -7.1917311E-02
 3.2100    5.4279980E-04    7.0284508E-02   -7.0284508E-02
 3.2200    5.2722856E-04    6.8694273E-02   -6.8694273E-02
 3.2300    5.1215884E-04    6.7145913E-02   -6.7145913E-02
 3.2400    4.9757419E-04    6.5638361E-02   -6.5638361E-02
 3.2500    4.8345230E-04    6.4169731E-02   -6.4169731E-02
 3.2600    4.6976548E-04    6.2737350E-02   -6.2737350E-02
 3.2700    4.5648360E-04    6.1338132E-02   -6.1338132E-02
 3.2800    4.4357705E-04    5.9968974E-02   -5.9968974E-02
 3.2900    4.3101930E-04    5.8627095E-02   -5.8627095E-02
 3.3000    4.1878961E-04    5.7310427E-02   -5.7310427E-02
 3.3100    4.0687576E-04    5.6018009E-02   -5.6018009E-02
 3.3200    3.9527518E-04    5.4750183E-02   -5.4750183E-02
 3.3300    3.8399306E-04    5.3508368E-02   -5.3508368E-02
 3.3400    3.7303720E-04    5.2294371E-02   -5.2294371E-02
 3.3500    3.6241118E-04    5.1109433E-02   -5.1109433E-02
 3.3600    3.5210912E-04    4.9953474E-02   -4.9953474E-02
