# total charge: 10.000000 
# r(A)     rho (e/A^3)     4*pi*r^2*rho(e/A)  dip  
 0.0000    3.9550264E+00    0.0000000E+00    7.9788456E+01
 0.0100    3.9514749E+00    4.9655698E-03    7.9385544E+01
 0.0200    3.9469908E+00    1.9839739E-02    7.8188699E+01
 0.0300    3.9413893E+00    4.4576062E-02    7.6232987E+01
 0.0400    3.9344768E+00    7.9107350E-02    7.3574921E+01
 0.0500    3.9260444E+00    1.2334032E-01    7.0289725E+01
 0.0600    3.9158636E+00    1.7714950E-01    6.6467771E+01
 0.0700    3.9037069E+00    2.4037159E-01    6.2210415E+01
 0.0800    3.8893952E+00    3.1280372E-01    5.7625507E+01
 0.0900    3.8728469E+00    3.9420780E-01    5.2822842E+01
 0.1000    3.8540919E+00    4.8431947E-01    4.7909825E+01
 0.1100    3.8332436E+00    5.8285651E-01    4.2987579E+01
 0.1200    3.8104518E+00    6.8952311E-01    3.8147688E+01
 0.1300    3.7858639E+00    8.0401021E-01    3.3469708E+01
 0.1400    3.7596079E+00    9.2599468E-01    2.9019498E+01
 0.1500    3.7317944E+00    1.0551400E+00    2.4848379E+01
 0.1600    3.7025263E+00    1.1910993E+00    2.0993068E+01
 0.1700    3.6719083E+00    1.3335200E+00    1.7476295E+01
 0.1800    3.6400491E+00    1.4820475E+00    1.4307984E+01
 0.1900    3.6070557E+00    1.6363263E+00    1.1486837E+01
 0.2000    3.5730268E+00    1.7959992E+00    9.0021941E+00
 0.2100    3.5380496E+00    1.9607055E+00    6.8360137E+00
 0.2200    3.5022038E+00    2.1300835E+00    4.9648350E+00
 0.2300    3.4655685E+00    2.3037748E+00    3.3616328E+00
 0.2400    3.4282274E+00    2.4814297E+00    1.9974764E+00
 0.2500    3.3902682E+00    2.6627104E+00    8.4294967E-01
 0.2600    3.3517780E+00    2.8472907E+00   -1.3069685E-01
 0.2700    3.3128388E+00    3.0348532E+00   -9.5066627E-01
 0.2800    3.2735256E+00    3.2250887E+00   -1.6419984E+00
 0.2900    3.2339081E+00    3.4176969E+00   -2.2271904E+00
 0.3000    3.1940538E+00    3.6123897E+00   -2.7260201E+00
 0.3100    3.1540293E+00    3.8088948E+00   -3.1555310E+00
 0.3200    3.1139007E+00    4.0069561E+00   -3.5301384E+00
 0.3300    3.0737304E+00    4.2063317E+00   -3.8618179E+00
 0.3400    3.0335741E+00    4.4067895E+00   -4.1603456E+00
 0.3500    2.9934778E+00    4.6081011E+00   -4.4335646E+00
 0.3600    2.9534777E+00    4.8100387E+00   -4.6876583E+00
 0.3700    2.9136022E+00    5.0123751E+00   -4.9274191E+00
 0.3800    2.8738755E+00    5.2148882E+00   -5.1564988E+00
 0.3900    2.8343209E+00    5.4173650E+00   -5.3776339E+00
 0.4000    2.7949610E+00    5.6196025E+00   -5.5928364E+00
 0.4100    2.7558142E+00    5.8214009E+00   -5.8035486E+00
 0.4200    2.7168897E+00    6.0225505E+00   -6.0107618E+00
 0.4300    2.6781842E+00    6.2228197E+00   -6.2151127E+00
 0.4400    2.6396858E+00    6.4219578E+00   -6.4169693E+00
 0.4500    2.6013827E+00    6.6197127E+00   -6.6165159E+00
 0.4600    2.5632723E+00    6.8158540E+00   -6.8138258E+00
 0.4700    2.5253610E+00    7.0101779E+00   -7.0089040E+00
 0.4800    2.4876541E+00    7.2024846E+00   -7.2016923E+00
 0.4900    2.4501445E+00    7.3925406E+00   -7.3920528E+00
 0.5000    2.4128080E+00    7.5800598E+00   -7.5797625E+00
 0.5100    2.3756125E+00    7.7647205E+00   -7.7645410E+00
 0.5200    2.3385323E+00    7.9462078E+00   -7.9461006E+00
 0.5300    2.3015546E+00    8.1242426E+00   -8.1241792E+00
 0.5400    2.2646730E+00    8.2985629E+00   -8.2985258E+00
 0.5500    2.2278706E+00    8.4688650E+00   -8.4688435E+00
 0.5600    2.1911081E+00    8.6347490E+00   -8.6347367E+00
 0.5700    2.1543282E+00    8.7957210E+00   -8.7957139E+00
 0.5800    2.1174757E+00    8.9512625E+00   -8.9512585E+00
 0.5900    2.0805192E+00    9.1009266E+00   -9.1009244E+00
 0.6000    2.0434593E+00    9.2443920E+00   -9.2443908E+00
 0.6100    2.0063183E+00    9.3814372E+00   -9.3814365E+00
 0.6200    1.9691186E+00    9.5118528E+00   -9.5118525E+00
 0.6300    1.9318652E+00    9.6353564E+00   -9.6353562E+00
 0.6400    1.8945431E+00    9.7515644E+00   -9.7515643E+00
 0.6500    1.8571286E+00    9.8600372E+00   -9.8600372E+00
 0.6600    1.8196051E+00    9.9603566E+00   -9.9603566E+00
 0.6700    1.7819718E+00    1.0052181E+01   -1.0052181E+01
 0.6800    1.7442425E+00    1.0135252E+01   -1.0135252E+01
 0.6900    1.7064385E+00    1.0209364E+01   -1.0209364E+01
 0.7000    1.6685796E+00    1.0274315E+01   -1.0274315E+01
 0.7100    1.6306790E+00    1.0329875E+01   -1.0329875E+01
 0.7200    1.5927438E+00    1.0375781E+01   -1.0375781E+01
 0.7300    1.5547814E+00    1.0411779E+01   -1.0411779E+01
 0.7400    1.5168068E+00    1.0437670E+01   -1.0437670E+01
 0.7500    1.4788442E+00    1.0453334E+01   -1.0453334E+01
 0.7600    1.4409213E+00    1.0458691E+01   -1.0458691E+01
 0.7700    1.4030635E+00    1.0453666E+01   -1.0453666E+01
 0.7800    1.3652947E+00    1.0438197E+01   -1.0438197E+01
 0.7900    1.3276467E+00    1.0412298E+01   -1.0412298E+01
 0.8000    1.2901671E+00    1.0376139E+01   -1.0376139E+01
 0.8100    1.2529198E+00    1.0330068E+01   -1.0330068E+01
 0.8200    1.2159753E+00    1.0274539E+01   -1.0274539E+01
 0.8300    1.1793959E+00    1.0209998E+01   -1.0209998E+01
 0.8400    1.1432241E+00    1.0136775E+01   -1.0136775E+01
 0.8500    1.1074811E+00    1.0055046E+01   -1.0055046E+01
 0.8600    1.0721759E+00    9.9648972E+00   -9.9648972E+00
 0.8700    1.0373198E+00    9.8664522E+00   -9.8664522E+00
 0.8800    1.0029391E+00    9.7599985E+00   -9.7599985E+00
 0.8900    9.6907862E-01    9.6460363E+00   -9.6460363E+00
 0.9000    9.3579404E-01    9.5252231E+00   -9.5252231E+00
 0.9100    9.0313998E-01    9.3982657E+00   -9.3982657E+00
 0.9200    8.7116292E-01    9.2658422E+00   -9.2658422E+00
 0.9300    8.3990116E-01    9.1285950E+00   -9.1285950E+00
 0.9400    8.0938849E-01    8.9871626E+00   -8.9871626E+00
 0.9500    7.7965574E-01    8.8421923E+00   -8.8421923E+00
 0.9600    7.5072884E-01    8.6943162E+00   -8.6943162E+00
 0.9700    7.2262658E-01    8.5441186E+00   -8.5441186E+00
 0.9800    6.9536057E-01    8.3921276E+00   -8.3921276E+00
 0.9900    6.6893665E-01    8.2388243E+00   -8.2388243E+00
 1.0000    6.4335575E-01    8.0846467E+00   -8.0846467E+00
 1.0100    6.1861489E-01    7.9299963E+00   -7.9299963E+00
 1.0200    5.9471003E-01    7.7752698E+00   -7.7752698E+00
 1.0300    5.7163978E-01    7.6209087E+00   -7.6209087E+00
 1.0400    5.4940689E-01    7.4674211E+00   -7.4674211E+00
 1.0500    5.2801528E-01    7.3153473E+00   -7.3153473E+00
 1.0600    5.0746475E-01    7.1651861E+00   -7.1651861E+00
 1.0700    4.8774700E-01    7.0173321E+00   -7.0173321E+00
 1.0800    4.6884521E-01    6.8720587E+00   -6.8720587E+00
 1.0900    4.5073664E-01    6.7295454E+00   -6.7295454E+00
 1.1000    4.3339591E-01    6.5899184E+00   -6.5899184E+00
 1.1100    4.1679669E-01    6.4532737E+00   -6.4532737E+00
 1.1200    4.0091154E-01    6.3196710E+00   -6.3196710E+00
 1.1300    3.8571079E-01    6.1891149E+00   -6.1891149E+00
 1.1400    3.7116247E-01    6.0615491E+00   -6.0615491E+00
 1.1500    3.5723336E-01    5.9368701E+00   -5.9368701E+00
 1.1600    3.4389023E-01    5.8149460E+00   -5.8149460E+00
 1.1700    3.3110024E-01    5.6956211E+00   -5.6956211E+00
 1.1800    3.1883064E-01    5.5787119E+00   -5.5787119E+00
 1.1900    3.0704905E-01    5.4640107E+00   -5.4640107E+00
 1.2000    2.9572478E-01    5.3513095E+00   -5.3513095E+00
 1.2100    2.8483056E-01    5.2404332E+00   -5.2404332E+00
 1.2200    2.7434361E-01    5.1312642E+00   -5.1312642E+00
 1.2300    2.6424559E-01    5.0237478E+00   -5.0237478E+00
 1.2400    2.5452169E-01    4.9178811E+00   -4.9178811E+00
 1.2500    2.4515955E-01    4.8136965E+00   -4.8136965E+00
 1.2600    2.3614823E-01    4.7112446E+00   -4.7112446E+00
 1.2700    2.2747734E-01    4.6105787E+00   -4.6105787E+00
 1.2800    2.1913639E-01    4.5117425E+00   -4.5117425E+00
 1.2900    2.1111450E-01    4.4147625E+00   -4.4147625E+00
 1.3000    2.0340043E-01    4.3196488E+00   -4.3196488E+00
 1.3100    1.9598314E-01    4.2264055E+00   -4.2264055E+00
 1.3200    1.8885235E-01    4.1350439E+00   -4.1350439E+00
 1.3300    1.8199879E-01    4.0455878E+00   -4.0455878E+00
 1.3400    1.7541353E-01    3.9580616E+00   -3.9580616E+00
 1.3500    1.6908708E-01    3.8724679E+00   -3.8724679E+00
 1.3600    1.6300874E-01    3.7887729E+00   -3.7887729E+00
 1.3700    1.5716701E-01    3.7069130E+00   -3.7069130E+00
 1.3800    1.5155065E-01    3.6268186E+00   -3.6268186E+00
 1.3900    1.4614963E-01    3.5484376E+00   -3.5484376E+00
 1.4000    1.4095534E-01    3.4717422E+00   -3.4717422E+00
 1.4100    1.3595998E-01    3.3967155E+00   -3.3967155E+00
 1.4200    1.3115558E-01    3.3233289E+00   -3.3233289E+00
 1.4300    1.2653357E-01    3.2515296E+00   -3.2515296E+00
 1.4400    1.2208502E-01    3.1812457E+00   -3.1812457E+00
 1.4500    1.1780142E-01    3.1124070E+00   -3.1124070E+00
 1.4600    1.1367536E-01    3.0449623E+00   -3.0449623E+00
 1.4700    1.0970055E-01    2.9788823E+00   -2.9788823E+00
 1.4800    1.0587134E-01    2.9141485E+00   -2.9141485E+00
 1.4900    1.0218214E-01    2.8507386E+00   -2.8507386E+00
 1.5000    9.8627241E-02    2.7886195E+00   -2.7886195E+00
 1.5100    9.5200957E-02    2.7277532E+00   -2.7277532E+00
 1.5200    9.1898012E-02    2.6681065E+00   -2.6681065E+00
 1.5300    8.8713759E-02    2.6096587E+00   -2.6096587E+00
 1.5400    8.5644070E-02    2.5523992E+00   -2.5523992E+00
 1.5500    8.2684986E-02    2.4963181E+00   -2.4963181E+00
 1.5600    7.9832405E-02    2.4413963E+00   -2.4413963E+00
 1.5700    7.7082027E-02    2.3876040E+00   -2.3876040E+00
 1.5800    7.4429569E-02    2.3349067E+00   -2.3349067E+00
 1.5900    7.1871062E-02    2.2832748E+00   -2.2832748E+00
 1.6000    6.9403017E-02    2.2326887E+00   -2.2326887E+00
 1.6100    6.7022344E-02    2.1831382E+00   -2.1831382E+00
 1.6200    6.4726144E-02    2.1346154E+00   -2.1346154E+00
 1.6300    6.2511511E-02    2.0871087E+00   -2.0871087E+00
 1.6400    6.0375462E-02    2.0406007E+00   -2.0406007E+00
 1.6500    5.8314993E-02    1.9950693E+00   -1.9950693E+00
 1.6600    5.6327202E-02    1.9504922E+00   -1.9504922E+00
 1.6700    5.4409405E-02    1.9068511E+00   -1.9068511E+00
 1.6800    5.2559181E-02    1.8641335E+00   -1.8641335E+00
 1.6900    5.0774296E-02    1.8223307E+00   -1.8223307E+00
 1.7000    4.9052554E-02    1.7814323E+00   -1.7814323E+00
 1.7100    4.7391699E-02    1.7414234E+00   -1.7414234E+00
 1.7200    4.5789429E-02    1.7022839E+00   -1.7022839E+00
 1.7300    4.4243516E-02    1.6639938E+00   -1.6639938E+00
 1.7400    4.2751937E-02    1.6265378E+00   -1.6265378E+00
 1.7500    4.1312914E-02    1.5899073E+00   -1.5899073E+00
 1.7600    3.9924830E-02    1.5540976E+00   -1.5540976E+00
 1.7700    3.8586062E-02    1.5191017E+00   -1.5191017E+00
 1.7800    3.7294843E-02    1.4849049E+00   -1.4849049E+00
 1.7900    3.6049265E-02    1.4514843E+00   -1.4514843E+00
 1.8000    3.4847421E-02    1.4188142E+00   -1.4188142E+00
 1.8100    3.3687599E-02    1.3868742E+00   -1.3868742E+00
 1.8200    3.2568353E-02    1.3556527E+00   -1.3556527E+00
 1.8300    3.1488386E-02    1.3251421E+00   -1.3251421E+00
 1.8400    3.0446324E-02    1.2953299E+00   -1.2953299E+00
 1.8500    2.9440580E-02    1.2661923E+00   -1.2661923E+00
 1.8600    2.8469435E-02    1.2376978E+00   -1.2376978E+00
 1.8700    2.7531298E-02    1.2098172E+00   -1.2098172E+00
 1.8800    2.6624901E-02    1.1825338E+00   -1.1825338E+00
 1.8900    2.5749298E-02    1.1558430E+00   -1.1558430E+00
 1.9000    2.4903662E-02    1.1297446E+00   -1.1297446E+00
 1.9100    2.4087087E-02    1.1042334E+00   -1.1042334E+00
 1.9200    2.3298521E-02    1.0792963E+00   -1.0792963E+00
 1.9300    2.2536857E-02    1.0549159E+00   -1.0549159E+00
 1.9400    2.1801051E-02    1.0310762E+00   -1.0310762E+00
 1.9500    2.1090191E-02    1.0077658E+00   -1.0077658E+00
 1.9600    2.0403475E-02    9.8497713E-01   -9.8497713E-01
 1.9700    1.9740133E-02    9.6270314E-01   -9.6270314E-01
 1.9800    1.9099346E-02    9.4093309E-01   -9.4093309E-01
 1.9900    1.8480203E-02    9.1965039E-01   -9.1965039E-01
 2.0000    1.7881725E-02    8.9883355E-01   -8.9883355E-01
 2.0100    1.7302948E-02    8.7846019E-01   -8.7846019E-01
 2.0200    1.6743019E-02    8.5851203E-01   -8.5851203E-01
 2.0300    1.6201252E-02    8.3897787E-01   -8.3897787E-01
 2.0400    1.5677107E-02    8.1985324E-01   -8.1985324E-01
 2.0500    1.5170132E-02    8.0113727E-01   -8.0113727E-01
 2.0600    1.4679880E-02    7.8282880E-01   -7.8282880E-01
 2.0700    1.4205857E-02    7.6492348E-01   -7.6492348E-01
 2.0800    1.3747520E-02    7.4741341E-01   -7.4741341E-01
 2.0900    1.3304312E-02    7.3028918E-01   -7.3028918E-01
 2.1000    1.2875721E-02    7.1354275E-01   -7.1354275E-01
 2.1100    1.2461302E-02    6.9716918E-01   -6.9716918E-01
 2.1200    1.2060669E-02    6.8116604E-01   -6.8116604E-01
 2.1300    1.1673456E-02    6.6553135E-01   -6.6553135E-01
 2.1400    1.1299275E-02    6.5026141E-01   -6.5026141E-01
 2.1500    1.0937699E-02    6.3534957E-01   -6.3534957E-01
 2.1600    1.0588255E-02    6.2078577E-01   -6.2078577E-01
 2.1700    1.0250436E-02    6.0655707E-01   -6.0655707E-01
 2.1800    9.9237273E-03    5.9264916E-01   -5.9264916E-01
 2.1900    9.6076505E-03    5.7904896E-01   -5.7904896E-01
 2.2000    9.3018079E-03    5.6574743E-01   -5.6574743E-01
 2.2100    9.0058991E-03    5.5274076E-01   -5.5274076E-01
 2.2200    8.7196959E-03    5.4002909E-01   -5.4002909E-01
 2.2300    8.4429915E-03    5.2761355E-01   -5.2761355E-01
 2.2400    8.1755539E-03    5.1549338E-01   -5.1549338E-01
 2.2500    7.9171065E-03    5.0366455E-01   -5.0366455E-01
 2.2600    7.6673364E-03    4.9212028E-01   -4.9212028E-01
 2.2700    7.4259181E-03    4.8085234E-01   -4.8085234E-01
 2.2800    7.1925315E-03    4.6985227E-01   -4.6985227E-01
 2.2900    6.9668675E-03    4.5911172E-01   -4.5911172E-01
 2.3000    6.7486241E-03    4.4862221E-01   -4.4862221E-01
 2.3100    6.5375049E-03    4.3837507E-01   -4.3837507E-01
 2.3200    6.3332222E-03    4.2836163E-01   -4.2836163E-01
 2.3300    6.1355025E-03    4.1857361E-01   -4.1857361E-01
 2.3400    5.9440927E-03    4.0900362E-01   -4.0900362E-01
 2.3500    5.7587665E-03    3.9964562E-01   -3.9964562E-01
 2.3600    5.5793313E-03    3.9049549E-01   -3.9049549E-01
 2.3700    5.4056252E-03    3.8155091E-01   -3.8155091E-01
 2.3800    5.2375004E-03    3.7281025E-01   -3.7281025E-01
 2.3900    5.0747987E-03    3.6427091E-01   -3.6427091E-01
 2.4000    4.9173349E-03    3.5592798E-01   -3.5592798E-01
 2.4100    4.7648995E-03    3.4777446E-01   -3.4777446E-01
 2.4200    4.6172794E-03    3.3980264E-01   -3.3980264E-01
 2.4300    4.4742804E-03    3.3200575E-01   -3.3200575E-01
 2.4400    4.3357380E-03    3.2437887E-01   -3.2437887E-01
 2.4500    4.2015141E-03    3.1691869E-01   -3.1691869E-01
 2.4600    4.0714856E-03    3.0962283E-01   -3.0962283E-01
 2.4700    3.9455356E-03    3.0248911E-01   -3.0248911E-01
 2.4800    3.8235486E-03    2.9551521E-01   -2.9551521E-01
 2.4900    3.7054072E-03    2.8869848E-01   -2.8869848E-01
 2.5000    3.5909901E-03    2.8203570E-01   -2.8203570E-01
 2.5100    3.4801702E-03    2.7552295E-01   -2.7552295E-01
 2.5200    3.3728185E-03    2.6915591E-01   -2.6915591E-01
 2.5300    3.2688116E-03    2.6293040E-01   -2.6293040E-01
 2.5400    3.1680393E-03    2.5684308E-01   -2.5684308E-01
 2.5500    3.0704081E-03    2.5089172E-01   -2.5089172E-01
 2.5600    2.9758366E-03    2.4507493E-01   -2.4507493E-01
 2.5700    2.8842467E-03    2.3939139E-01   -2.3939139E-01
 2.5800    2.7955535E-03    2.3383908E-01   -2.3383908E-01
 2.5900    2.7096630E-03    2.2841503E-01   -2.2841503E-01
 2.6000    2.6264777E-03    2.2311577E-01   -2.2311577E-01
 2.6100    2.5459062E-03    2.1793815E-01   -2.1793815E-01
 2.6200    2.4678676E-03    2.1287973E-01   -2.1287973E-01
 2.6300    2.3922877E-03    2.0793843E-01   -2.0793843E-01
 2.6400    2.3190897E-03    2.0311185E-01   -2.0311185E-01
 2.6500    2.2481901E-03    1.9839679E-01   -1.9839679E-01
 2.6600    2.1795051E-03    1.9378985E-01   -1.9378985E-01
 2.6700    2.1129622E-03    1.8928845E-01   -1.8928845E-01
 2.6800    2.0485064E-03    1.8489143E-01   -1.8489143E-01
 2.6900    1.9860948E-03    1.8059861E-01   -1.8059861E-01
 2.7000    1.9256827E-03    1.7640956E-01   -1.7640956E-01
 2.7100    1.8672134E-03    1.7232266E-01   -1.7232266E-01
 2.7200    1.8106169E-03    1.6833493E-01   -1.6833493E-01
 2.7300    1.7558183E-03    1.6444275E-01   -1.6444275E-01
 2.7400    1.7027461E-03    1.6064266E-01   -1.6064266E-01
 2.7500    1.6513371E-03    1.5693182E-01   -1.5693182E-01
 2.7600    1.6015334E-03    1.5330772E-01   -1.5330772E-01
 2.7700    1.5532775E-03    1.4976780E-01   -1.4976780E-01
 2.7800    1.5065118E-03    1.4630932E-01   -1.4630932E-01
 2.7900    1.4611810E-03    1.4292964E-01   -1.4292964E-01
 2.8000    1.4172367E-03    1.3962665E-01   -1.3962665E-01
 2.8100    1.3746379E-03    1.3639889E-01   -1.3639889E-01
 2.8200    1.3333487E-03    1.3324528E-01   -1.3324528E-01
 2.8300    1.2933332E-03    1.3016468E-01   -1.3016468E-01
 2.8400    1.2545520E-03    1.2715552E-01   -1.2715552E-01
 2.8500    1.2169607E-03    1.2421560E-01   -1.2421560E-01
 2.8600    1.1805105E-03    1.2134218E-01   -1.2134218E-01
 2.8700    1.1451522E-03    1.1853234E-01   -1.1853234E-01
 2.8800    1.1108402E-03    1.1578344E-01   -1.1578344E-01
 2.8900    1.0775376E-03    1.1309359E-01   -1.1309359E-01
 2.9000    1.0452176E-03    1.1046192E-01   -1.1046192E-01
 2.9100    1.0138612E-03    1.0788830E-01   -1.0788830E-01
 2.9200    9.8345014E-04    1.0537265E-01   -1.0537265E-01
 2.9300    9.5395933E-04    1.0291412E-01   -1.0291412E-01
 2.9400    9.2535488E-04    1.0051083E-01   -1.0051083E-01
 2.9500    8.9759864E-04    9.8160346E-02   -9.8160346E-02
 2.9600    8.7065683E-04    9.5860634E-02   -9.5860634E-02
 2.9700    8.4450629E-04    9.3610734E-02   -9.3610734E-02
 2.9800    8.1913376E-04    9.1410738E-02   -9.1410738E-02
 2.9900    7.9452916E-04    8.9261069E-02   -8.9261069E-02
 3.0000    7.7067821E-04    8.7161652E-02   -8.7161652E-02
 3.0100    7.4755963E-04    8.5111588E-02   -8.5111588E-02
 3.0200    7.2514798E-04    8.3109447E-02   -8.3109447E-02
 3.0300    7.0341861E-04    8.1153822E-02   -8.1153822E-02
 3.0400    6.8235066E-04    7.9243682E-02   -7.9243682E-02
 3.0500    6.6192649E-04    7.7378322E-02   -7.7378322E-02
 3.0600    6.4212918E-04    7.5557073E-02   -7.5557073E-02
 3.0700    6.2294063E-04    7.3779086E-02   -7.3779086E-02
 3.0800    6.0434170E-04    7.2043343E-02   -7.2043343E-02
 3.0900    5.8631371E-04    7.0348829E-02   -7.0348829E-02
 3.1000    5.6883952E-04    6.8694666E-02   -6.8694666E-02
 3.1100    5.5190318E-04    6.7080074E-02   -6.7080074E-02
 3.1200    5.3548849E-04    6.5504207E-02   -6.5504207E-02
 3.1300    5.1957801E-04    6.3966016E-02   -6.3966016E-02
 3.1400    5.0415327E-04    6.2464282E-02   -6.2464282E-02
 3.1500    4.8919620E-04    6.0997782E-02   -6.0997782E-02
 3.1600    4.7469072E-04    5.9565497E-02   -5.9565497E-02
 3.1700    4.6062353E-04    5.8166711E-02   -5.8166711E-02
 3.1800    4.4698387E-04    5.6800996E-02   -5.6800996E-02
 3.1900    4.3376222E-04    5.5468057E-02   -5.5468057E-02
 3.2000    4.2094861E-04    5.4167513E-02   -5.4167513E-02
 3.2100    4.0853094E-04    5.2898686E-02   -5.2898686E-02
 3.2200    3.9649447E-04    5.1660516E-02   -5.1660516E-02
 3.2300    3.8482279E-04    5.0451688E-02   -5.0451688E-02
 3.2400    3.7349997E-04    4.9270895E-02   -4.9270895E-02
 3.2500    3.6251232E-04    4.8117090E-02   -4.8117090E-02
 3.2600    3.5184913E-04    4.6989578E-02   -4.6989578E-02
 3.2700    3.4150176E-04    4.5887914E-02   -4.5887914E-02
 3.2800    3.3146180E-04    4.4811661E-02   -4.4811661E-02
 3.2900    3.2171927E-04    4.3760143E-02   -4.3760143E-02
 3.3000    3.1226213E-04    4.2732378E-02   -4.2732378E-02
 3.3100    3.0307778E-04    4.1727268E-02   -4.1727268E-02
 3.3200    2.9415543E-04    4.0743928E-02   -4.0743928E-02
 3.3300    2.8548776E-04    3.9781928E-02   -3.9781928E-02
 3.3400    2.7707059E-04    3.8841253E-02   -3.8841253E-02
 3.3500    2.6890077E-04    3.7922025E-02   -3.7922025E-02
 3.3600    2.6097384E-04    3.7024175E-02   -3.7024175E-02
