# total charge: 11.000000 
# r(A)     rho (e/A^3)     4*pi*r^2*rho(e/A)  dip  
 0.0000    4.9940025E+00    0.0000000E+00    8.7767302E+01
 0.0100    4.9895324E+00    6.2700313E-03    8.7323290E+01
 0.0200    4.9838878E+00    2.5051753E-02    8.6004341E+01
 0.0300    4.9768358E+00    5.6286687E-02    8.3849033E+01
 0.0400    4.9681313E+00    9.9890207E-02    8.0919541E+01
 0.0500    4.9575091E+00    1.5574474E-01    7.7298627E+01
 0.0600    4.9446783E+00    2.2369197E-01    7.3085721E+01
 0.0700    4.9293473E+00    3.0352563E-01    6.8392340E+01
 0.0800    4.9112847E+00    3.9498895E-01    6.3337153E+01
 0.0900    4.8903801E+00    4.9778007E-01    5.8040975E+01
 0.1000    4.8666627E+00    6.1156287E-01    5.2621997E+01
 0.1100    4.8402665E+00    7.3597745E-01    4.7191501E+01
 0.1200    4.8113721E+00    8.7064538E-01    4.1850287E+01
 0.1300    4.7801577E+00    1.0151700E+00    3.6685920E+01
 0.1400    4.7467775E+00    1.1691354E+00    3.1770907E+01
 0.1500    4.7113632E+00    1.3321066E+00    2.7161764E+01
 0.1600    4.6740364E+00    1.5036332E+00    2.2898950E+01
 0.1700    4.6349194E+00    1.6832549E+00    1.9007542E+01
 0.1800    4.5941386E+00    1.8705054E+00    1.5498529E+01
 0.1900    4.5518191E+00    2.0649144E+00    1.2370565E+01
 0.2000    4.5080762E+00    2.2660063E+00    9.6120064E+00
 0.2100    4.4630125E+00    2.4732986E+00    7.2030925E+00
 0.2200    4.4167216E+00    2.6863045E+00    5.1181059E+00
 0.2300    4.3692965E+00    2.9045379E+00    3.3274104E+00
 0.2400    4.3208351E+00    3.1275196E+00    1.7992771E+00
 0.2500    4.2714403E+00    3.3547813E+00    5.0144477E-01
 0.2600    4.2212175E+00    3.5858679E+00   -5.9761469E-01
 0.2700    4.1702708E+00    3.8203367E+00   -1.5277311E+00
 0.2800    4.1186995E+00    4.0577569E+00   -2.3163576E+00
 0.2900    4.0665966E+00    4.2977084E+00   -2.9881513E+00
 0.3000    4.0140479E+00    4.5397812E+00   -3.5647746E+00
 0.3100    3.9611330E+00    4.7835760E+00   -4.0648758E+00
 0.3200    3.9079261E+00    5.0287051E+00   -4.5042057E+00
 0.3300    3.8544973E+00    5.2747938E+00   -4.8958287E+00
 0.3400    3.8009122E+00    5.5214804E+00   -5.2503921E+00
 0.3500    3.7472311E+00    5.7684142E+00   -5.5764240E+00
 0.3600    3.6935087E+00    6.0152543E+00   -5.8806359E+00
 0.3700    3.6397932E+00    6.2616678E+00   -6.1682161E+00
 0.3800    3.5861272E+00    6.5073287E+00   -6.4431004E+00
 0.3900    3.5325477E+00    6.7519173E+00   -6.7082131E+00
 0.4000    3.4790869E+00    6.9951192E+00   -6.9656766E+00
 0.4100    3.4257717E+00    7.2366238E+00   -7.2169863E+00
 0.4200    3.3726240E+00    7.4761218E+00   -7.4631543E+00
 0.4300    3.3196602E+00    7.7133032E+00   -7.7048254E+00
 0.4400    3.2668919E+00    7.9478557E+00   -7.9423684E+00
 0.4500    3.2143262E+00    8.1794639E+00   -8.1759475E+00
 0.4600    3.1619666E+00    8.4078083E+00   -8.4055773E+00
 0.4700    3.1098128E+00    8.6325644E+00   -8.6311631E+00
 0.4800    3.0578618E+00    8.8534020E+00   -8.8525305E+00
 0.4900    3.0061075E+00    9.0699841E+00   -9.0694475E+00
 0.5000    2.9545417E+00    9.2819664E+00   -9.2816393E+00
 0.5100    2.9031542E+00    9.4889974E+00   -9.4888000E+00
 0.5200    2.8519335E+00    9.6907177E+00   -9.6905997E+00
 0.5300    2.8008664E+00    9.8867601E+00   -9.8866903E+00
 0.5400    2.7499393E+00    1.0076750E+01   -1.0076709E+01
 0.5500    2.6991382E+00    1.0260307E+01   -1.0260284E+01
 0.5600    2.6484499E+00    1.0437048E+01   -1.0437034E+01
 0.5700    2.5978616E+00    1.0606585E+01   -1.0606578E+01
 0.5800    2.5473621E+00    1.0768533E+01   -1.0768528E+01
 0.5900    2.4969409E+00    1.0922503E+01   -1.0922500E+01
 0.6000    2.4465893E+00    1.1068109E+01   -1.1068108E+01
 0.6100    2.3963001E+00    1.1204971E+01   -1.1204970E+01
 0.6200    2.3460684E+00    1.1332714E+01   -1.1332713E+01
 0.6300    2.2958922E+00    1.1450975E+01   -1.1450974E+01
 0.6400    2.2457719E+00    1.1559404E+01   -1.1559404E+01
 0.6500    2.1957109E+00    1.1657670E+01   -1.1657669E+01
 0.6600    2.1457156E+00    1.1745457E+01   -1.1745457E+01
 0.6700    2.0957952E+00    1.1822473E+01   -1.1822473E+01
 0.6800    2.0459618E+00    1.1888449E+01   -1.1888449E+01
 0.6900    1.9962305E+00    1.1943146E+01   -1.1943146E+01
 0.7000    1.9466198E+00    1.1986354E+01   -1.1986354E+01
 0.7100    1.8971511E+00    1.2017897E+01   -1.2017897E+01
 0.7200    1.8478491E+00    1.2037640E+01   -1.2037640E+01
 0.7300    1.7987413E+00    1.2045485E+01   -1.2045485E+01
 0.7400    1.7498580E+00    1.2041376E+01   -1.2041376E+01
 0.7500    1.7012319E+00    1.2025300E+01   -1.2025300E+01
 0.7600    1.6528980E+00    1.1997289E+01   -1.1997289E+01
 0.7700    1.6048936E+00    1.1957422E+01   -1.1957422E+01
 0.7800    1.5572578E+00    1.1905828E+01   -1.1905828E+01
 0.7900    1.5100313E+00    1.1842680E+01   -1.1842680E+01
 0.8000    1.4632559E+00    1.1768202E+01   -1.1768202E+01
 0.8100    1.4169746E+00    1.1682666E+01   -1.1682666E+01
 0.8200    1.3712311E+00    1.1586392E+01   -1.1586392E+01
 0.8300    1.3260698E+00    1.1479750E+01   -1.1479750E+01
 0.8400    1.2815353E+00    1.1363157E+01   -1.1363157E+01
 0.8500    1.2376720E+00    1.1237075E+01   -1.1237075E+01
 0.8600    1.1945234E+00    1.1102005E+01   -1.1102005E+01
 0.8700    1.1521315E+00    1.0958483E+01   -1.0958483E+01
 0.8800    1.1105371E+00    1.0807078E+01   -1.0807078E+01
 0.8900    1.0697791E+00    1.0648391E+01   -1.0648391E+01
 0.9000    1.0298950E+00    1.0483054E+01   -1.0483054E+01
 0.9100    9.9092043E-01    1.0311728E+01   -1.0311728E+01
 0.9200    9.5288865E-01    1.0135091E+01   -1.0135091E+01
 0.9300    9.1583024E-01    9.9538419E+00   -9.9538419E+00
 0.9400    8.7977257E-01    9.7686824E+00   -9.7686824E+00
 0.9500    8.4473960E-01    9.5803181E+00   -9.5803181E+00
 0.9600    8.1075173E-01    9.3894513E+00   -9.3894513E+00
 0.9700    7.7782577E-01    9.1967771E+00   -9.1967771E+00
 0.9800    7.4597494E-01    9.0029793E+00   -9.0029793E+00
 0.9900    7.1520879E-01    8.8087258E+00   -8.8087258E+00
 1.0000    6.8553324E-01    8.6146647E+00   -8.6146647E+00
 1.0100    6.5695045E-01    8.4214180E+00   -8.4214180E+00
 1.0200    6.2945866E-01    8.2295753E+00   -8.2295753E+00
 1.0300    6.0305205E-01    8.0396865E+00   -8.0396865E+00
 1.0400    5.7772067E-01    7.8522560E+00   -7.8522560E+00
 1.0500    5.5345059E-01    7.6677389E+00   -7.6677389E+00
 1.0600    5.3022416E-01    7.4865393E+00   -7.4865393E+00
 1.0700    5.0802036E-01    7.3090097E+00   -7.3090097E+00
 1.0800    4.8681501E-01    7.1354494E+00   -7.1354494E+00
 1.0900    4.6658090E-01    6.9661018E+00   -6.9661018E+00
 1.1000    4.4728783E-01    6.8011494E+00   -6.8011494E+00
 1.1100    4.2890264E-01    6.6407104E+00   -6.6407104E+00
 1.1200    4.1138937E-01    6.4848356E+00   -6.4848356E+00
 1.1300    3.9470954E-01    6.3335088E+00   -6.3335088E+00
 1.1400    3.7882258E-01    6.1866483E+00   -6.1866483E+00
 1.1500    3.6368619E-01    6.0441100E+00   -6.0441100E+00
 1.1600    3.4925686E-01    5.9056920E+00   -5.9056920E+00
 1.1700    3.3549035E-01    5.7711401E+00   -5.7711401E+00
 1.1800    3.2234242E-01    5.6401589E+00   -5.6401589E+00
 1.1900    3.0976989E-01    5.5124288E+00   -5.5124288E+00
 1.2000    2.9773201E-01    5.3876315E+00   -5.3876315E+00
 1.2100    2.8619191E-01    5.2654800E+00   -5.2654800E+00
 1.2200    2.7511780E-01    5.1457444E+00   -5.1457444E+00
 1.2300    2.6448337E-01    5.0282684E+00   -5.0282684E+00
 1.2400    2.5426740E-01    4.9129678E+00   -4.9129678E+00
 1.2500    2.4445269E-01    4.7998174E+00   -4.7998174E+00
 1.2600    2.3502470E-01    4.6888298E+00   -4.6888298E+00
 1.2700    2.2597043E-01    4.5800362E+00   -4.5800362E+00
 1.2800    2.1727756E-01    4.4734715E+00   -4.4734715E+00
 1.2900    2.0893402E-01    4.3691649E+00   -4.3691649E+00
 1.3000    2.0092774E-01    4.2671357E+00   -4.2671357E+00
 1.3100    1.9324661E-01    4.1673918E+00   -4.1673918E+00
 1.3200    1.8587852E-01    4.0699300E+00   -4.0699300E+00
 1.3300    1.7881143E-01    3.9747373E+00   -3.9747373E+00
 1.3400    1.7203337E-01    3.8817911E+00   -3.8817911E+00
 1.3500    1.6553249E-01    3.7910599E+00   -3.7910599E+00
 1.3600    1.5929707E-01    3.7025033E+00   -3.7025033E+00
 1.3700    1.5331564E-01    3.6160752E+00   -3.6160752E+00
 1.3800    1.4757708E-01    3.5317255E+00   -3.5317255E+00
 1.3900    1.4207072E-01    3.4494038E+00   -3.4494038E+00
 1.4000    1.3678633E-01    3.3690592E+00   -3.3690592E+00
 1.4100    1.3171410E-01    3.2906400E+00   -3.2906400E+00
 1.4200    1.2684458E-01    3.2140933E+00   -3.2140933E+00
 1.4300    1.2216864E-01    3.1393642E+00   -3.1393642E+00
 1.4400    1.1767753E-01    3.0663972E+00   -3.0663972E+00
 1.4500    1.1336289E-01    2.9951377E+00   -2.9951377E+00
 1.4600    1.0921680E-01    2.9255330E+00   -2.9255330E+00
 1.4700    1.0523177E-01    2.8575340E+00   -2.8575340E+00
 1.4800    1.0140076E-01    2.7910944E+00   -2.7910944E+00
 1.4900    9.7717093E-02    2.7261700E+00   -2.7261700E+00
 1.5000    9.4174397E-02    2.6627184E+00   -2.6627184E+00
 1.5100    9.0766613E-02    2.6006978E+00   -2.6006978E+00
 1.5200    8.7487986E-02    2.5400687E+00   -2.5400687E+00
 1.5300    8.4333087E-02    2.4807941E+00   -2.4807941E+00
 1.5400    8.1296821E-02    2.4228407E+00   -2.4228407E+00
 1.5500    7.8374397E-02    2.3661783E+00   -2.3661783E+00
 1.5600    7.5561290E-02    2.3107791E+00   -2.3107791E+00
 1.5700    7.2853191E-02    2.2566164E+00   -2.2566164E+00
 1.5800    7.0245984E-02    2.2036648E+00   -2.2036648E+00
 1.5900    6.7735733E-02    2.1518993E+00   -2.1518993E+00
 1.6000    6.5318688E-02    2.1012962E+00   -2.1012962E+00
 1.6100    6.2991294E-02    2.0518336E+00   -2.0518336E+00
 1.6200    6.0750189E-02    2.0034916E+00   -2.0034916E+00
 1.6300    5.8592174E-02    1.9562515E+00   -1.9562515E+00
 1.6400    5.6514181E-02    1.9100951E+00   -1.9100951E+00
 1.6500    5.4513250E-02    1.8650043E+00   -1.8650043E+00
 1.6600    5.2586517E-02    1.8209602E+00   -1.8209602E+00
 1.6700    5.0731221E-02    1.7779442E+00   -1.7779442E+00
 1.6800    4.8944709E-02    1.7359379E+00   -1.7359379E+00
 1.6900    4.7224430E-02    1.6949231E+00   -1.6949231E+00
 1.7000    4.5567922E-02    1.6548816E+00   -1.6548816E+00
 1.7100    4.3972801E-02    1.6157948E+00   -1.6157948E+00
 1.7200    4.2436759E-02    1.5776438E+00   -1.5776438E+00
 1.7300    4.0957558E-02    1.5404093E+00   -1.5404093E+00
 1.7400    3.9533031E-02    1.5040715E+00   -1.5040715E+00
 1.7500    3.8161084E-02    1.4686106E+00   -1.4686106E+00
 1.7600    3.6839691E-02    1.4340067E+00   -1.4340067E+00
 1.7700    3.5566895E-02    1.4002396E+00   -1.4002396E+00
 1.7800    3.4340804E-02    1.3672890E+00   -1.3672890E+00
 1.7900    3.3159586E-02    1.3351345E+00   -1.3351345E+00
 1.8000    3.2021475E-02    1.3037556E+00   -1.3037556E+00
 1.8100    3.0924765E-02    1.2731320E+00   -1.2731320E+00
 1.8200    2.9867819E-02    1.2432434E+00   -1.2432434E+00
 1.8300    2.8849063E-02    1.2140701E+00   -1.2140701E+00
 1.8400    2.7866982E-02    1.1855925E+00   -1.1855925E+00
 1.8500    2.6920116E-02    1.1577912E+00   -1.1577912E+00
 1.8600    2.6007064E-02    1.1306471E+00   -1.1306471E+00
 1.8700    2.5126485E-02    1.1041417E+00   -1.1041417E+00
 1.8800    2.4277099E-02    1.0782572E+00   -1.0782572E+00
 1.8900    2.3457689E-02    1.0529765E+00   -1.0529765E+00
 1.9000    2.2667094E-02    1.0282836E+00   -1.0282836E+00
 1.9100    2.1904206E-02    1.0041627E+00   -1.0041627E+00
 1.9200    2.1167966E-02    9.8059903E-01   -9.8059903E-01
 1.9300    2.0457365E-02    9.5757803E-01   -9.5757803E-01
 1.9400    1.9771434E-02    9.3508585E-01   -9.3508585E-01
 1.9500    1.9109248E-02    9.1310913E-01   -9.1310913E-01
 1.9600    1.8469924E-02    8.9163501E-01   -8.9163501E-01
 1.9700    1.7852618E-02    8.7065127E-01   -8.7065127E-01
 1.9800    1.7256529E-02    8.5014632E-01   -8.5014632E-01
 1.9900    1.6680893E-02    8.3010935E-01   -8.3010935E-01
 2.0000    1.6124988E-02    8.1053029E-01   -8.1053029E-01
 2.0100    1.5588127E-02    7.9139975E-01   -7.9139975E-01
 2.0200    1.5069655E-02    7.7270887E-01   -7.7270887E-01
 2.0300    1.4568942E-02    7.5444912E-01   -7.5444912E-01
 2.0400    1.4085383E-02    7.3661212E-01   -7.3661212E-01
 2.0500    1.3618392E-02    7.1918961E-01   -7.1918961E-01
 2.0600    1.3167401E-02    7.0217341E-01   -7.0217341E-01
 2.0700    1.2731866E-02    6.8555548E-01   -6.8555548E-01
 2.0800    1.2311258E-02    6.6932794E-01   -6.6932794E-01
 2.0900    1.1905069E-02    6.5348309E-01   -6.5348309E-01
 2.1000    1.1512810E-02    6.3801339E-01   -6.3801339E-01
 2.1100    1.1134008E-02    6.2291145E-01   -6.2291145E-01
 2.1200    1.0768206E-02    6.0816995E-01   -6.0816995E-01
 2.1300    1.0414964E-02    5.9378172E-01   -5.9378172E-01
 2.1400    1.0073852E-02    5.7973964E-01   -5.7973964E-01
 2.1500    9.7444599E-03    5.6603665E-01   -5.6603665E-01
 2.1600    9.4263832E-03    5.5266563E-01   -5.5266563E-01
 2.1700    9.1192283E-03    5.3961923E-01   -5.3961923E-01
 2.1800    8.8226077E-03    5.2688983E-01   -5.2688983E-01
 2.1900    8.5361410E-03    5.1446955E-01   -5.1446955E-01
 2.2000    8.2594587E-03    5.0235047E-01   -5.0235047E-01
 2.2100    7.9922052E-03    4.9052488E-01   -4.9052488E-01
 2.2200    7.7340406E-03    4.7898538E-01   -4.7898538E-01
 2.2300    7.4846386E-03    4.6772483E-01   -4.6772483E-01
 2.2400    7.2436830E-03    4.5673610E-01   -4.5673610E-01
 2.2500    7.0108650E-03    4.4601196E-01   -4.4601196E-01
 2.2600    6.7858826E-03    4.3554505E-01   -4.3554505E-01
 2.2700    6.5684429E-03    4.2532803E-01   -4.2532803E-01
 2.2800    6.3582649E-03    4.1535379E-01   -4.1535379E-01
 2.2900    6.1550803E-03    4.0561551E-01   -4.0561551E-01
 2.3000    5.9586326E-03    3.9610666E-01   -3.9610666E-01
 2.3100    5.7686757E-03    3.8682092E-01   -3.8682092E-01
 2.3200    5.5849726E-03    3.7775209E-01   -3.7775209E-01
 2.3300    5.4072953E-03    3.6889417E-01   -3.6889417E-01
 2.3400    5.2354252E-03    3.6024133E-01   -3.6024133E-01
 2.3500    5.0691535E-03    3.5178801E-01   -3.5178801E-01
 2.3600    4.9082814E-03    3.4352894E-01   -3.4352894E-01
 2.3700    4.7526198E-03    3.3545914E-01   -3.3545914E-01
 2.3800    4.6019886E-03    3.2757392E-01   -3.2757392E-01
 2.3900    4.4562161E-03    3.1986882E-01   -3.1986882E-01
 2.4000    4.3151378E-03    3.1233958E-01   -3.1233958E-01
 2.4100    4.1785963E-03    3.0498211E-01   -3.0498211E-01
 2.4200    4.0464407E-03    2.9779251E-01   -2.9779251E-01
 2.4300    3.9185269E-03    2.9076709E-01   -2.9076709E-01
 2.4400    3.7947174E-03    2.8390233E-01   -2.8390233E-01
 2.4500    3.6748808E-03    2.7719494E-01   -2.7719494E-01
 2.4600    3.5588914E-03    2.7064176E-01   -2.7064176E-01
 2.4700    3.4466283E-03    2.6423979E-01   -2.6423979E-01
 2.4800    3.3379753E-03    2.5798612E-01   -2.5798612E-01
 2.4900    3.2328207E-03    2.5187797E-01   -2.5187797E-01
 2.5000    3.1310568E-03    2.4591263E-01   -2.4591263E-01
 2.5100    3.0325794E-03    2.4008747E-01   -2.4008747E-01
 2.5200    2.9372872E-03    2.3439987E-01   -2.3439987E-01
 2.5300    2.8450811E-03    2.2884718E-01   -2.2884718E-01
 2.5400    2.7558641E-03    2.2342671E-01   -2.2342671E-01
 2.5500    2.6695414E-03    2.1813577E-01   -2.1813577E-01
 2.5600    2.5860207E-03    2.1297165E-01   -2.1297165E-01
 2.5700    2.5052122E-03    2.0793167E-01   -2.0793167E-01
 2.5800    2.4270282E-03    2.0301312E-01   -2.0301312E-01
 2.5900    2.3513835E-03    1.9821333E-01   -1.9821333E-01
 2.6000    2.2781954E-03    1.9352966E-01   -1.9352966E-01
 2.6100    2.2073835E-03    1.8895948E-01   -1.8895948E-01
 2.6200    2.1388695E-03    1.8450016E-01   -1.8450016E-01
 2.6300    2.0725758E-03    1.8014897E-01   -1.8014897E-01
 2.6400    2.0084252E-03    1.7590305E-01   -1.7590305E-01
 2.6500    1.9463419E-03    1.7175949E-01   -1.7175949E-01
 2.6600    1.8862535E-03    1.6771550E-01   -1.6771550E-01
 2.6700    1.8280920E-03    1.6376853E-01   -1.6376853E-01
 2.6800    1.7717936E-03    1.5991624E-01   -1.5991624E-01
 2.6900    1.7172960E-03    1.5615632E-01   -1.5615632E-01
 2.7000    1.6645365E-03    1.5248626E-01   -1.5248626E-01
 2.7100    1.6134514E-03    1.4890330E-01   -1.4890330E-01
 2.7200    1.5639779E-03    1.4540464E-01   -1.4540464E-01
 2.7300    1.5160563E-03    1.4198762E-01   -1.4198762E-01
 2.7400    1.4696317E-03    1.3864988E-01   -1.3864988E-01
 2.7500    1.4246534E-03    1.3538934E-01   -1.3538934E-01
 2.7600    1.3810733E-03    1.3220405E-01   -1.3220405E-01
 2.7700    1.3388446E-03    1.2909207E-01   -1.2909207E-01
 2.7800    1.2979219E-03    1.2605150E-01   -1.2605150E-01
 2.7900    1.2582615E-03    1.2308048E-01   -1.2308048E-01
 2.8000    1.2198218E-03    1.2017727E-01   -1.2017727E-01
 2.8100    1.1825632E-03    1.1734021E-01   -1.1734021E-01
 2.8200    1.1464473E-03    1.1456770E-01   -1.1456770E-01
 2.8300    1.1114365E-03    1.1185809E-01   -1.1185809E-01
 2.8400    1.0774938E-03    1.0920973E-01   -1.0920973E-01
 2.8500    1.0445839E-03    1.0662104E-01   -1.0662104E-01
 2.8600    1.0126738E-03    1.0409060E-01   -1.0409060E-01
 2.8700    9.8173386E-04    1.0161725E-01   -1.0161725E-01
 2.8800    9.5173695E-04    9.9200022E-02   -9.9200022E-02
 2.8900    9.2265783E-04    9.6838091E-02   -9.6838091E-02
 2.9000    8.9447198E-04    9.4530640E-02   -9.4530640E-02
 2.9100    8.6715478E-04    9.2276787E-02   -9.2276787E-02
 2.9200    8.4068104E-04    9.0075529E-02   -9.0075529E-02
 2.9300    8.1502492E-04    8.7925732E-02   -8.7925732E-02
 2.9400    7.9016044E-04    8.5826185E-02   -8.5826185E-02
 2.9500    7.6606261E-04    8.3775719E-02   -8.3775719E-02
 2.9600    7.4270868E-04    8.1773349E-02   -8.1773349E-02
 2.9700    7.2007843E-04    7.9818317E-02   -7.9818317E-02
 2.9800    6.9815332E-04    7.7910000E-02   -7.7910000E-02
 2.9900    6.7691482E-04    7.6047731E-02   -7.6047731E-02
 3.0000    6.5634321E-04    7.4230668E-02   -7.4230668E-02
 3.0100    6.3641770E-04    7.2457794E-02   -7.2457794E-02
 3.0200    6.1711741E-04    7.0728028E-02   -7.0728028E-02
 3.0300    5.9842239E-04    6.9040345E-02   -6.9040345E-02
 3.0400    5.8031389E-04    6.7393808E-02   -6.7393808E-02
 3.0500    5.6277401E-04    6.5787529E-02   -6.5787529E-02
 3.0600    5.4578513E-04    6.4220609E-02   -6.4220609E-02
 3.0700    5.2932960E-04    6.2692096E-02   -6.2692096E-02
 3.0800    5.1338981E-04    6.1201003E-02   -6.1201003E-02
 3.0900    4.9794839E-04    5.9746319E-02   -5.9746319E-02
 3.1000    4.8298829E-04    5.8327029E-02   -5.8327029E-02
 3.1100    4.6849272E-04    5.6942101E-02   -5.6942101E-02
 3.1200    4.5444513E-04    5.5590491E-02   -5.5590491E-02
 3.1300    4.4082934E-04    5.4271151E-02   -5.4271151E-02
 3.1400    4.2762980E-04    5.2983071E-02   -5.2983071E-02
 3.1500    4.1483196E-04    5.1725319E-02   -5.1725319E-02
 3.1600    4.0242236E-04    5.0497065E-02   -5.0497065E-02
 3.1700    3.9038858E-04    4.9297568E-02   -4.9297568E-02
 3.1800    3.7871884E-04    4.8126138E-02   -4.8126138E-02
 3.1900    3.6740158E-04    4.6982081E-02   -4.6982081E-02
 3.2000    3.5642516E-04    4.5864659E-02   -4.5864659E-02
 3.2100    3.4577769E-04    4.4773072E-02   -4.4773072E-02
 3.2200    3.3544727E-04    4.3706484E-02   -4.3706484E-02
 3.2300    3.2542241E-04    4.2664079E-02   -4.2664079E-02
 3.2400    3.1569259E-04    4.1645135E-02   -4.1645135E-02
 3.2500    3.0624847E-04    4.0649061E-02   -4.0649061E-02
 3.2600    2.9708178E-04    3.9675379E-02   -3.9675379E-02
 3.2700    2.8818484E-04    3.8723670E-02   -3.8723670E-02
 3.2800    2.7955004E-04    3.7793500E-02   -3.7793500E-02
 3.2900    2.7116953E-04    3.6884385E-02   -3.6884385E-02
 3.3000    2.6303534E-04    3.5995802E-02   -3.5995802E-02
 3.3100    2.5513985E-04    3.5127249E-02   -3.5127249E-02
 3.3200    2.4747631E-04    3.4278330E-02   -3.4278330E-02
 3.3300    2.4003909E-04    3.3448782E-02   -3.3448782E-02
 3.3400    2.3282342E-04    3.2638446E-02   -3.2638446E-02
 3.3500    2.2582470E-04    3.1847176E-02   -3.1847176E-02
 3.3600    2.1903791E-04    3.1074754E-02   -3.1074754E-02
