# total charge: 3.000000 
# r(A)     rho (e/A^3)     4*pi*r^2*rho(e/A)  dip  
 0.0000    8.8837520E-03    0.0000000E+00    2.3936537E+01
 0.0100    9.0443853E-03    1.1365510E-05    2.3817141E+01
 0.0200    9.2473473E-03    4.6482237E-05    2.3462515E+01
 0.0300    9.5011903E-03    1.0745593E-04    2.2883161E+01
 0.0400    9.8150459E-03    1.9734321E-04    2.2096011E+01
 0.0500    1.0198983E-02    3.2041051E-04    2.1123599E+01
 0.0600    1.0664213E-02    4.8243761E-04    1.9992994E+01
 0.0700    1.1222165E-02    6.9100723E-04    1.8734545E+01
 0.0800    1.1882273E-02    9.5562906E-04    1.7380538E+01
 0.0900    1.2649729E-02    1.2875856E-03    1.5963827E+01
 0.1000    1.3524825E-02    1.6995796E-03    1.4516544E+01
 0.1100    1.4504185E-02    2.2054060E-03    1.3068925E+01
 0.1200    1.5582897E-02    2.8198145E-03    1.1648343E+01
 0.1300    1.6756246E-02    3.5585517E-03    1.0278557E+01
 0.1400    1.8020472E-02    4.4384579E-03    8.9792095E+00
 0.1500    1.9372659E-02    5.4774902E-03    7.7655782E+00
 0.1600    2.0810189E-02    6.6946188E-03    6.6485555E+00
 0.1700    2.2330268E-02    8.1096412E-03    5.6348350E+00
 0.1800    2.3929822E-02    9.7430369E-03    4.7272665E+00
 0.1900    2.5605815E-02    1.1615975E-02    3.9253329E+00
 0.2000    2.7355673E-02    1.3750461E-02    3.2257075E+00
 0.2100    2.9177454E-02    1.6169472E-02    2.6228463E+00
 0.2200    3.1069594E-02    1.8896911E-02    2.1095787E+00
 0.2300    3.3030467E-02    2.1957366E-02    1.6776649E+00
 0.2400    3.5058030E-02    2.5375807E-02    1.3182960E+00
 0.2500    3.7149738E-02    2.9177336E-02    1.0225207E+00
 0.2600    3.9302651E-02    3.3387078E-02    7.8159108E-01
 0.2700    4.1513645E-02    3.8030169E-02    5.8722592E-01
 0.2800    4.3779604E-02    4.3131817E-02    4.3179528E-01
 0.2900    4.6097558E-02    4.8717364E-02    3.0843458E-01
 0.3000    4.8464700E-02    5.4812284E-02    2.1109862E-01
 0.3100    5.0878279E-02    6.1442046E-02    1.3456710E-01
 0.3200    5.3335469E-02    6.8631887E-02    7.4413405E-02
 0.3300    5.5833279E-02    7.6406601E-02    2.6947535E-02
 0.3400    5.8368573E-02    8.4790418E-02   -1.0857267E-02
 0.3500    6.0938143E-02    9.3806983E-02   -4.1446022E-02
 0.3600    6.3538771E-02    1.0347935E-01   -6.6765231E-02
 0.3700    6.6167241E-02    1.1382990E-01   -8.8343079E-02
 0.3800    6.8820318E-02    1.2488024E-01   -1.0736343E-01
 0.3900    7.1494744E-02    1.3665112E-01   -1.2473179E-01
 0.4000    7.4187234E-02    1.4916228E-01   -1.4113247E-01
 0.4100    7.6894489E-02    1.6243245E-01   -1.5707675E-01
 0.4200    7.9613202E-02    1.7647920E-01   -1.7294262E-01
 0.4300    8.2340050E-02    1.9131891E-01   -1.8900680E-01
 0.4400    8.5071690E-02    2.0696661E-01   -2.0547006E-01
 0.4500    8.7804752E-02    2.2343588E-01   -2.2247685E-01
 0.4600    9.0535839E-02    2.4073878E-01   -2.4013033E-01
 0.4700    9.3261541E-02    2.5888576E-01   -2.5850357E-01
 0.4800    9.5978456E-02    2.7788564E-01   -2.7764796E-01
 0.4900    9.8683197E-02    2.9774552E-01   -2.9759918E-01
 0.5000    1.0137240E-01    3.1847078E-01   -3.1838158E-01
 0.5100    1.0404270E-01    3.4006493E-01   -3.4001110E-01
 0.5200    1.0669078E-01    3.6252956E-01   -3.6249739E-01
 0.5300    1.0931330E-01    3.8586432E-01   -3.8584530E-01
 0.5400    1.1190703E-01    4.1006693E-01   -4.1005579E-01
 0.5500    1.1446875E-01    4.3513316E-01   -4.3512670E-01
 0.5600    1.1699533E-01    4.6105681E-01   -4.6105310E-01
 0.5700    1.1948369E-01    4.8782964E-01   -4.8782753E-01
 0.5800    1.2193077E-01    5.1544125E-01   -5.1544007E-01
 0.5900    1.2433358E-01    5.4387903E-01   -5.4387837E-01
 0.6000    1.2668914E-01    5.7312817E-01   -5.7312781E-01
 0.6100    1.2899457E-01    6.0317170E-01   -6.0317150E-01
 0.6200    1.3124705E-01    6.3399058E-01   -6.3399047E-01
 0.6300    1.3344388E-01    6.6556369E-01   -6.6556363E-01
 0.6400    1.3558243E-01    6.9786789E-01   -6.9786786E-01
 0.6500    1.3766017E-01    7.3087797E-01   -7.3087796E-01
 0.6600    1.3967465E-01    7.6456662E-01   -7.6456661E-01
 0.6700    1.4162350E-01    7.9890439E-01   -7.9890438E-01
 0.6800    1.4350444E-01    8.3385977E-01   -8.3385977E-01
 0.6900    1.4531526E-01    8.6939927E-01   -8.6939927E-01
 0.7000    1.4705389E-01    9.0548751E-01   -9.0548751E-01
 0.7100    1.4871838E-01    9.4208742E-01   -9.4208742E-01
 0.7200    1.5030691E-01    9.7916032E-01   -9.7916032E-01
 0.7300    1.5181780E-01    1.0166660E+00   -1.0166660E+00
 0.7400    1.5324949E-01    1.0545626E+00   -1.0545626E+00
 0.7500    1.5460052E-01    1.0928067E+00   -1.0928067E+00
 0.7600    1.5586955E-01    1.1313535E+00   -1.1313535E+00
 0.7700    1.5705534E-01    1.1701567E+00   -1.1701567E+00
 0.7800    1.5815679E-01    1.2091687E+00   -1.2091687E+00
 0.7900    1.5917287E-01    1.2483406E+00   -1.2483406E+00
 0.8000    1.6010266E-01    1.2876220E+00   -1.2876220E+00
 0.8100    1.6094534E-01    1.3269615E+00   -1.3269615E+00
 0.8200    1.6170022E-01    1.3663067E+00   -1.3663067E+00
 0.8300    1.6236674E-01    1.4056045E+00   -1.4056045E+00
 0.8400    1.6294446E-01    1.4448010E+00   -1.4448010E+00
 0.8500    1.6343305E-01    1.4838418E+00   -1.4838418E+00
 0.8600    1.6383232E-01    1.5226719E+00   -1.5226719E+00
 0.8700    1.6414221E-01    1.5612363E+00   -1.5612363E+00
 0.8800    1.6436278E-01    1.5994795E+00   -1.5994795E+00
 0.8900    1.6449421E-01    1.6373461E+00   -1.6373461E+00
 0.9000    1.6453678E-01    1.6747804E+00   -1.6747804E+00
 0.9100    1.6449084E-01    1.7117265E+00   -1.7117265E+00
 0.9200    1.6435683E-01    1.7481282E+00   -1.7481282E+00
 0.9300    1.6413525E-01    1.7839293E+00   -1.7839293E+00
 0.9400    1.6382675E-01    1.8190741E+00   -1.8190741E+00
 0.9500    1.6343208E-01    1.8535076E+00   -1.8535076E+00
 0.9600    1.6295215E-01    1.8871761E+00   -1.8871761E+00
 0.9700    1.6238800E-01    1.9200266E+00   -1.9200266E+00
 0.9800    1.6174078E-01    1.9520078E+00   -1.9520078E+00
 0.9900    1.6101174E-01    1.9830689E+00   -1.9830689E+00
 1.0000    1.6020221E-01    2.0131603E+00   -2.0131603E+00
 1.0100    1.5931358E-01    2.0422335E+00   -2.0422335E+00
 1.0200    1.5834734E-01    2.0702413E+00   -2.0702413E+00
 1.0300    1.5730504E-01    2.0971378E+00   -2.0971378E+00
 1.0400    1.5618836E-01    2.1228788E+00   -2.1228788E+00
 1.0500    1.5499903E-01    2.1474223E+00   -2.1474223E+00
 1.0600    1.5373893E-01    2.1707283E+00   -2.1707283E+00
 1.0700    1.5241004E-01    2.1927595E+00   -2.1927595E+00
 1.0800    1.5101443E-01    2.2134812E+00   -2.2134812E+00
 1.0900    1.4955426E-01    2.2328609E+00   -2.2328609E+00
 1.1000    1.4803176E-01    2.2508686E+00   -2.2508686E+00
 1.1100    1.4644923E-01    2.2674770E+00   -2.2674770E+00
 1.1200    1.4480903E-01    2.2826617E+00   -2.2826617E+00
 1.1300    1.4311364E-01    2.2964012E+00   -2.2964012E+00
 1.1400    1.4136558E-01    2.3086774E+00   -2.3086774E+00
 1.1500    1.3956747E-01    2.3194752E+00   -2.3194752E+00
 1.1600    1.3772193E-01    2.3287826E+00   -2.3287826E+00
 1.1700    1.3583167E-01    2.3365907E+00   -2.3365907E+00
 1.1800    1.3389945E-01    2.3428941E+00   -2.3428941E+00
 1.1900    1.3192805E-01    2.3476910E+00   -2.3476910E+00
 1.2000    1.2992036E-01    2.3509834E+00   -2.3509834E+00
 1.2100    1.2787926E-01    2.3527767E+00   -2.3527767E+00
 1.2200    1.2580769E-01    2.3530801E+00   -2.3530801E+00
 1.2300    1.2370861E-01    2.3519062E+00   -2.3519062E+00
 1.2400    1.2158499E-01    2.3492715E+00   -2.3492715E+00
 1.2500    1.1943985E-01    2.3451960E+00   -2.3451960E+00
 1.2600    1.1727621E-01    2.3397038E+00   -2.3397038E+00
 1.2700    1.1509711E-01    2.3328227E+00   -2.3328227E+00
 1.2800    1.1290560E-01    2.3245842E+00   -2.3245842E+00
 1.2900    1.1070473E-01    2.3150239E+00   -2.3150239E+00
 1.3000    1.0849757E-01    2.3041809E+00   -2.3041809E+00
 1.3100    1.0628714E-01    2.2920979E+00   -2.2920979E+00
 1.3200    1.0407646E-01    2.2788210E+00   -2.2788210E+00
 1.3300    1.0186851E-01    2.2643997E+00   -2.2643997E+00
 1.3400    9.9666234E-02    2.2488864E+00   -2.2488864E+00
 1.3500    9.7472567E-02    2.2323372E+00   -2.2323372E+00
 1.3600    9.5290418E-02    2.2148122E+00   -2.2148122E+00
 1.3700    9.3122683E-02    2.1963749E+00   -2.1963749E+00
 1.3800    9.0972227E-02    2.1770924E+00   -2.1770924E+00
 1.3900    8.8841861E-02    2.1570346E+00   -2.1570346E+00
 1.4000    8.6734322E-02    2.1362739E+00   -2.1362739E+00
 1.4100    8.4652274E-02    2.1148848E+00   -2.1148848E+00
 1.4200    8.2598313E-02    2.0929446E+00   -2.0929446E+00
 1.4300    8.0574978E-02    2.0705329E+00   -2.0705329E+00
 1.4400    7.8584733E-02    2.0477316E+00   -2.0477316E+00
 1.4500    7.6629919E-02    2.0246233E+00   -2.0246233E+00
 1.4600    7.4712675E-02    2.0012892E+00   -2.0012892E+00
 1.4700    7.2834855E-02    1.9778065E+00   -1.9778065E+00
 1.4800    7.0997941E-02    1.9542452E+00   -1.9542452E+00
 1.4900    6.9202976E-02    1.9306661E+00   -1.9306661E+00
 1.5000    6.7450527E-02    1.9071187E+00   -1.9071187E+00
 1.5100    6.5740697E-02    1.8836407E+00   -1.8836407E+00
 1.5200    6.4073183E-02    1.8602587E+00   -1.8602587E+00
 1.5300    6.2447372E-02    1.8369904E+00   -1.8369904E+00
 1.5400    6.0862448E-02    1.8138473E+00   -1.8138473E+00
 1.5500    5.9317492E-02    1.7908369E+00   -1.7908369E+00
 1.5600    5.7811554E-02    1.7679652E+00   -1.7679652E+00
 1.5700    5.6343693E-02    1.7452373E+00   -1.7452373E+00
 1.5800    5.4912985E-02    1.7226581E+00   -1.7226581E+00
 1.5900    5.3518517E-02    1.7002320E+00   -1.7002320E+00
 1.6000    5.2159379E-02    1.6779625E+00   -1.6779625E+00
 1.6100    5.0834672E-02    1.6558525E+00   -1.6558525E+00
 1.6200    4.9543515E-02    1.6339046E+00   -1.6339046E+00
 1.6300    4.8285054E-02    1.6121216E+00   -1.6121216E+00
 1.6400    4.7058460E-02    1.5905059E+00   -1.5905059E+00
 1.6500    4.5862929E-02    1.5690600E+00   -1.5690600E+00
 1.6600    4.4697674E-02    1.5477862E+00   -1.5477862E+00
 1.6700    4.3561919E-02    1.5266863E+00   -1.5266863E+00
 1.6800    4.2454900E-02    1.5057617E+00   -1.5057617E+00
 1.6900    4.1375862E-02    1.4850132E+00   -1.4850132E+00
 1.7000    4.0324081E-02    1.4644420E+00   -1.4644420E+00
 1.7100    3.9298873E-02    1.4440498E+00   -1.4440498E+00
 1.7200    3.8299590E-02    1.4238390E+00   -1.4238390E+00
 1.7300    3.7325607E-02    1.4038120E+00   -1.4038120E+00
 1.7400    3.6376301E-02    1.3839707E+00   -1.3839707E+00
 1.7500    3.5451037E-02    1.3643158E+00   -1.3643158E+00
 1.7600    3.4549186E-02    1.3448474E+00   -1.3448474E+00
 1.7700    3.3670145E-02    1.3255661E+00   -1.3255661E+00
 1.7800    3.2813355E-02    1.3064732E+00   -1.3064732E+00
 1.7900    3.1978308E-02    1.2875717E+00   -1.2875717E+00
 1.8000    3.1164512E-02    1.2688644E+00   -1.2688644E+00
 1.8100    3.0371466E-02    1.2503534E+00   -1.2503534E+00
 1.8200    2.9598647E-02    1.2320391E+00   -1.2320391E+00
 1.8300    2.8845530E-02    1.2139214E+00   -1.2139214E+00
 1.8400    2.8111628E-02    1.1960009E+00   -1.1960009E+00
 1.8500    2.7396518E-02    1.1782805E+00   -1.1782805E+00
 1.8600    2.6699821E-02    1.1607645E+00   -1.1607645E+00
 1.8700    2.6021157E-02    1.1434566E+00   -1.1434566E+00
 1.8800    2.5360101E-02    1.1263582E+00   -1.1263582E+00
 1.8900    2.4716183E-02    1.1094682E+00   -1.1094682E+00
 1.9000    2.4088930E-02    1.0927846E+00   -1.0927846E+00
 1.9100    2.3477902E-02    1.0763063E+00   -1.0763063E+00
 1.9200    2.2882702E-02    1.0600336E+00   -1.0600336E+00
 1.9300    2.2302958E-02    1.0439674E+00   -1.0439674E+00
 1.9400    2.1738296E-02    1.0281082E+00   -1.0281082E+00
 1.9500    2.1188329E-02    1.0124551E+00   -1.0124551E+00
 1.9600    2.0652656E-02    9.9700635E-01   -9.9700635E-01
 1.9700    2.0130891E-02    9.8175997E-01   -9.8175997E-01
 1.9800    1.9622678E-02    9.6671515E-01   -9.6671515E-01
 1.9900    1.9127708E-02    9.5187286E-01   -9.5187286E-01
 2.0000    1.8645713E-02    9.3723575E-01   -9.3723575E-01
 2.0100    1.8176442E-02    9.2280697E-01   -9.2280697E-01
 2.0200    1.7719628E-02    9.0858844E-01   -9.0858844E-01
 2.0300    1.7274963E-02    8.9457975E-01   -8.9457975E-01
 2.0400    1.6842103E-02    8.8077810E-01   -8.8077810E-01
 2.0500    1.6420688E-02    8.6717936E-01   -8.6717936E-01
 2.0600    1.6010373E-02    8.5377958E-01   -8.5377958E-01
 2.0700    1.5610846E-02    8.4057604E-01   -8.4057604E-01
 2.0800    1.5221826E-02    8.2756724E-01   -8.2756724E-01
 2.0900    1.4843043E-02    8.1475188E-01   -8.1475188E-01
 2.1000    1.4474216E-02    8.0212769E-01   -8.0212769E-01
 2.1100    1.4115048E-02    7.8969091E-01   -7.8969091E-01
 2.1200    1.3765234E-02    7.7743697E-01   -7.7743697E-01
 2.1300    1.3424482E-02    7.6536149E-01   -7.6536149E-01
 2.1400    1.3092526E-02    7.5346115E-01   -7.5346115E-01
 2.1500    1.2769134E-02    7.4173410E-01   -7.4173410E-01
 2.1600    1.2454109E-02    7.3018017E-01   -7.3018017E-01
 2.1700    1.2147285E-02    7.1880083E-01   -7.1880083E-01
 2.1800    1.1848519E-02    7.0759854E-01   -7.0759854E-01
 2.1900    1.1557660E-02    6.9657519E-01   -6.9657519E-01
 2.2000    1.1274520E-02    6.8573025E-01   -6.8573025E-01
 2.2100    1.0998863E-02    6.7505976E-01   -6.7505976E-01
 2.2200    1.0730414E-02    6.6455706E-01   -6.6455706E-01
 2.2300    1.0468891E-02    6.5421463E-01   -6.5421463E-01
 2.2400    1.0214041E-02    6.4402614E-01   -6.4402614E-01
 2.2500    9.9656524E-03    6.3398741E-01   -6.3398741E-01
 2.2600    9.7235486E-03    6.2409619E-01   -6.2409619E-01
 2.2700    9.4875737E-03    6.1435124E-01   -6.1435124E-01
 2.2800    9.2575814E-03    6.0475170E-01   -6.0475170E-01
 2.2900    9.0334324E-03    5.9529691E-01   -5.9529691E-01
 2.3000    8.8149968E-03    5.8598661E-01   -5.8598661E-01
 2.3100    8.6021541E-03    5.7682097E-01   -5.7682097E-01
 2.3200    8.3947885E-03    5.6780027E-01   -5.6780027E-01
 2.3300    8.1927844E-03    5.5892461E-01   -5.5892461E-01
 2.3400    7.9960217E-03    5.5019361E-01   -5.5019361E-01
 2.3500    7.8043676E-03    5.4160580E-01   -5.4160580E-01
 2.3600    7.6176682E-03    5.3315799E-01   -5.3315799E-01
 2.3700    7.4357479E-03    5.2484518E-01   -5.2484518E-01
 2.3800    7.2584265E-03    5.1666169E-01   -5.1666169E-01
 2.3900    7.0855459E-03    5.0860308E-01   -5.0860308E-01
 2.4000    6.9169900E-03    5.0066761E-01   -5.0066761E-01
 2.4100    6.7526805E-03    4.9285612E-01   -4.9285612E-01
 2.4200    6.5925545E-03    4.8517043E-01   -4.8517043E-01
 2.4300    6.4365385E-03    4.7761150E-01   -4.7761150E-01
 2.4400    6.2845366E-03    4.7017851E-01   -4.7017851E-01
 2.4500    6.1364339E-03    4.6286899E-01   -4.6286899E-01
 2.4600    5.9921058E-03    4.5567956E-01   -4.5567956E-01
 2.4700    5.8514261E-03    4.4860643E-01   -4.4860643E-01
 2.4800    5.7142726E-03    4.4164587E-01   -4.4164587E-01
 2.4900    5.5805346E-03    4.3479482E-01   -4.3479482E-01
 2.5000    5.4501226E-03    4.2805163E-01   -4.2805163E-01
 2.5100    5.3229713E-03    4.2141640E-01   -4.2141640E-01
 2.5200    5.1990313E-03    4.1489039E-01   -4.1489039E-01
 2.5300    5.0782499E-03    4.0847452E-01   -4.0847452E-01
 2.5400    4.9605538E-03    4.0216796E-01   -4.0216796E-01
 2.5500    4.8458423E-03    3.9596746E-01   -3.9596746E-01
 2.5600    4.7339973E-03    3.8986819E-01   -3.8986819E-01
 2.5700    4.6249067E-03    3.8386550E-01   -3.8386550E-01
 2.5800    4.5184856E-03    3.7795681E-01   -3.7795681E-01
 2.5900    4.4146811E-03    3.7214203E-01   -3.7214203E-01
 2.6000    4.3134553E-03    3.6642227E-01   -3.6642227E-01
 2.6100    4.2147614E-03    3.6079779E-01   -3.6079779E-01
 2.6200    4.1185321E-03    3.5526703E-01   -3.5526703E-01
 2.6300    4.0246927E-03    3.4982762E-01   -3.4982762E-01
 2.6400    3.9331850E-03    3.4447848E-01   -3.4447848E-01
 2.6500    3.8439756E-03    3.3922061E-01   -3.3922061E-01
 2.6600    3.7570350E-03    3.3405531E-01   -3.3405531E-01
 2.6700    3.6723032E-03    3.2898107E-01   -3.2898107E-01
 2.6800    3.5896730E-03    3.2399204E-01   -3.2399204E-01
 2.6900    3.5090100E-03    3.1907959E-01   -3.1907959E-01
 2.7000    3.4301940E-03    3.1423610E-01   -3.1423610E-01
 2.7100    3.3531517E-03    3.0945796E-01   -3.0945796E-01
 2.7200    3.2778587E-03    3.0474592E-01   -3.0474592E-01
 2.7300    3.2043139E-03    3.0010291E-01   -3.0010291E-01
 2.7400    3.1325086E-03    2.9553115E-01   -2.9553115E-01
 2.7500    3.0624125E-03    2.9103079E-01   -2.9103079E-01
 2.7600    2.9939828E-03    2.8660075E-01   -2.8660075E-01
 2.7700    2.9271820E-03    2.8224037E-01   -2.8224037E-01
 2.7800    2.8619851E-03    2.7795010E-01   -2.7795010E-01
 2.7900    2.7983692E-03    2.7373056E-01   -2.7373056E-01
 2.8000    2.7362967E-03    2.6958089E-01   -2.6958089E-01
 2.8100    2.6757073E-03    2.6549791E-01   -2.6549791E-01
 2.8200    2.6165239E-03    2.6147657E-01   -2.6147657E-01
 2.8300    2.5586688E-03    2.5751160E-01   -2.5751160E-01
 2.8400    2.5020824E-03    2.5359936E-01   -2.5359936E-01
 2.8500    2.4467379E-03    2.4973938E-01   -2.4973938E-01
 2.8600    2.3926461E-03    2.4593504E-01   -2.4593504E-01
 2.8700    2.3398474E-03    2.4219278E-01   -2.4219278E-01
 2.8800    2.2883855E-03    2.3851957E-01   -2.3851957E-01
 2.8900    2.2382723E-03    2.3491918E-01   -2.3491918E-01
 2.9000    2.1894609E-03    2.3138919E-01   -2.3138919E-01
 2.9100    2.1418507E-03    2.2792136E-01   -2.2792136E-01
 2.9200    2.0953301E-03    2.2450604E-01   -2.2450604E-01
 2.9300    2.0498316E-03    2.2113795E-01   -2.2113795E-01
 2.9400    2.0053591E-03    2.1781946E-01   -2.1781946E-01
 2.9500    1.9619656E-03    2.1455828E-01   -2.1455828E-01
 2.9600    1.9196949E-03    2.1136132E-01   -2.1136132E-01
 2.9700    1.8785296E-03    2.0822880E-01   -2.0822880E-01
 2.9800    1.8383847E-03    2.0515343E-01   -2.0515343E-01
 2.9900    1.7991504E-03    2.0212485E-01   -2.0212485E-01
 3.0000    1.7607479E-03    1.9913589E-01   -1.9913589E-01
 3.0100    1.7231537E-03    1.9618549E-01   -1.9618549E-01
 3.0200    1.6863814E-03    1.9327672E-01   -1.9327672E-01
 3.0300    1.6504419E-03    1.9041246E-01   -1.9041246E-01
 3.0400    1.6153199E-03    1.8759254E-01   -1.8759254E-01
 3.0500    1.5809797E-03    1.8481442E-01   -1.8481442E-01
 3.0600    1.5473901E-03    1.8207593E-01   -1.8207593E-01
 3.0700    1.5145398E-03    1.7937722E-01   -1.7937722E-01
 3.0800    1.4824312E-03    1.7672006E-01   -1.7672006E-01
 3.0900    1.4510600E-03    1.7410538E-01   -1.7410538E-01
 3.1000    1.4204003E-03    1.7153155E-01   -1.7153155E-01
 3.1100    1.3904103E-03    1.6899490E-01   -1.6899490E-01
 3.1200    1.3610526E-03    1.6649223E-01   -1.6649223E-01
 3.1300    1.3323135E-03    1.6402309E-01   -1.6402309E-01
 3.1400    1.3042048E-03    1.6159018E-01   -1.6159018E-01
 3.1500    1.2767489E-03    1.5919758E-01   -1.5919758E-01
 3.1600    1.2499581E-03    1.5684818E-01   -1.5684818E-01
 3.1700    1.2238204E-03    1.5454184E-01   -1.5454184E-01
 3.1800    1.1982982E-03    1.5227514E-01   -1.5227514E-01
 3.1900    1.1733383E-03    1.5004256E-01   -1.5004256E-01
 3.2000    1.1488895E-03    1.4783868E-01   -1.4783868E-01
 3.2100    1.1249198E-03    1.4566040E-01   -1.4566040E-01
 3.2200    1.1014239E-03    1.4350799E-01   -1.4350799E-01
 3.2300    1.0784172E-03    1.4138448E-01   -1.4138448E-01
 3.2400    1.0559197E-03    1.3929347E-01   -1.3929347E-01
 3.2500    1.0339377E-03    1.3723691E-01   -1.3723691E-01
 3.2600    1.0124546E-03    1.3521368E-01   -1.3521368E-01
 3.2700    9.9143593E-04    1.3322018E-01   -1.3322018E-01
 3.2800    9.7084875E-04    1.3125297E-01   -1.3125297E-01
 3.2900    9.5068623E-04    1.2931201E-01   -1.2931201E-01
 3.3000    9.3097694E-04    1.2740212E-01   -1.2740212E-01
 3.3100    9.1176668E-04    1.2553059E-01   -1.2553059E-01
 3.3200    8.9308171E-04    1.2370214E-01   -1.2370214E-01
 3.3300    8.7490059E-04    1.2191497E-01   -1.2191497E-01
 3.3400    8.5715788E-04    1.2016102E-01   -1.2016102E-01
 3.3500    8.3977785E-04    1.1843059E-01   -1.1843059E-01
 3.3600    8.2271212E-04    1.1671759E-01   -1.1671759E-01
