# total charge: 9.000000 
# r(A)     rho (e/A^3)     4*pi*r^2*rho(e/A)  dip  
 0.0000   -8.9387718E-01   -0.0000000E+00    7.1809610E+01
 0.0100   -8.9056032E-01   -1.1191111E-03    7.1452578E+01
 0.0200   -8.8637068E-01   -4.4553850E-03    7.0392140E+01
 0.0300   -8.8113343E-01   -9.9653843E-03    6.8659772E+01
 0.0400   -8.7466338E-01   -1.7586151E-02    6.6306211E+01
 0.0500   -8.6675822E-01   -2.7230013E-02    6.3398989E+01
 0.0600   -8.5719477E-01   -3.8778578E-02    6.0019207E+01
 0.0700   -8.4574799E-01   -5.2077115E-02    5.6257785E+01
 0.0800   -8.3223660E-01   -6.6932439E-02    5.2211412E+01
 0.0900   -8.1656898E-01   -8.3116598E-02    4.7978462E+01
 0.1000   -7.9875663E-01   -1.0037472E-01    4.3655105E+01
 0.1100   -7.7888834E-01   -1.1843237E-01    3.9331824E+01
 0.1200   -7.5708637E-01   -1.3699912E-01    3.5090489E+01
 0.1300   -7.3347073E-01   -1.5576840E-01    3.1002115E+01
 0.1400   -7.0814361E-01   -1.7441638E-01    2.7125360E+01
 0.1500   -6.8119138E-01   -1.9260232E-01    2.3505770E+01
 0.1600   -6.5269471E-01   -2.0997129E-01    2.0175722E+01
 0.1700   -6.2273785E-01   -2.2615853E-01    1.7154992E+01
 0.1800   -5.9141066E-01   -2.4079309E-01    1.4451822E+01
 0.1900   -5.5880346E-01   -2.5349894E-01    1.2064346E+01
 0.2000   -5.2499971E-01   -2.6389364E-01    9.9822676E+00
 0.2100   -4.9007326E-01   -2.7158730E-01    8.1886346E+00
 0.2200   -4.5409247E-01   -2.7618464E-01    6.6616114E+00
 0.2300   -4.1712760E-01   -2.7729016E-01    5.3761570E+00
 0.2400   -3.7925626E-01   -2.7451439E-01    4.3055298E+00
 0.2500   -3.4056437E-01   -2.6747863E-01    3.4225727E+00
 0.2600   -3.0114389E-01   -2.5581771E-01    2.7007522E+00
 0.2700   -2.6108948E-01   -2.3918105E-01    2.1149493E+00
 0.2800   -2.2049578E-01   -2.1723320E-01    1.6420145E+00
 0.2900   -1.7945569E-01   -1.8965447E-01    1.2611103E+00
 0.3000   -1.3805995E-01   -1.5614213E-01    9.5387484E-01
 0.3100   -9.6397817E-02   -1.1641272E-01    7.0444015E-01
 0.3200   -5.4557997E-02   -7.0205032E-02    4.9934091E-01
 0.3300   -1.2629365E-02   -1.7283005E-02    3.2734541E-01
 0.3400    2.9299131E-02    4.2562041E-02    1.7923741E-01
 0.3500    7.1139115E-02    1.0951016E-01    4.7572725E-02
 0.3600    1.1280363E-01    1.8371217E-01   -7.3569827E-02
 0.3700    1.5420779E-01    2.6528924E-01   -1.8882879E-01
 0.3800    1.9526904E-01    3.5433206E-01   -3.0178161E-01
 0.3900    2.3590692E-01    4.5089951E-01   -4.1514153E-01
 0.4000    2.7604282E-01    5.5501703E-01   -5.3092759E-01
 0.4100    3.1559989E-01    6.6667539E-01   -6.5060829E-01
 0.4200    3.5450346E-01    7.8583057E-01   -7.7522082E-01
 0.4300    3.9268173E-01    9.1240460E-01   -9.0546826E-01
 0.4400    4.3006645E-01    1.0462869E+00   -1.0417972E+00
 0.4500    4.6659325E-01    1.1873352E+00   -1.1844581E+00
 0.4600    5.0220157E-01    1.3353761E+00   -1.3335507E+00
 0.4700    5.3683446E-01    1.4902048E+00   -1.4890583E+00
 0.4800    5.7043816E-01    1.6515849E+00   -1.6508719E+00
 0.4900    6.0296191E-01    1.8192480E+00   -1.8188090E+00
 0.5000    6.3435797E-01    1.9928943E+00   -1.9926267E+00
 0.5100    6.6458225E-01    2.1721957E+00   -2.1720342E+00
 0.5200    6.9359509E-01    2.3567991E+00   -2.3567026E+00
 0.5300    7.2136158E-01    2.5463296E+00   -2.5462725E+00
 0.5400    7.4785125E-01    2.7403915E+00   -2.7403581E+00
 0.5500    7.7303733E-01    2.9385678E+00   -2.9385484E+00
 0.5600    7.9689634E-01    3.1404201E+00   -3.1404090E+00
 0.5700    8.1940824E-01    3.3454913E+00   -3.3454850E+00
 0.5800    8.4055679E-01    3.5533085E+00   -3.5533049E+00
 0.5900    8.6032973E-01    3.7633865E+00   -3.7633845E+00
 0.6000    8.7871861E-01    3.9752293E+00   -3.9752282E+00
 0.6100    8.9571846E-01    4.1883316E+00   -4.1883310E+00
 0.6200    9.1132773E-01    4.4021803E+00   -4.4021800E+00
 0.6300    9.2554832E-01    4.6162579E+00   -4.6162577E+00
 0.6400    9.3838576E-01    4.8300455E+00   -4.8300454E+00
 0.6500    9.4984918E-01    5.0430263E+00   -5.0430262E+00
 0.6600    9.5995111E-01    5.2546870E+00   -5.2546870E+00
 0.6700    9.6870722E-01    5.4645198E+00   -5.4645198E+00
 0.6800    9.7613614E-01    5.6720243E+00   -5.6720243E+00
 0.6900    9.8225933E-01    5.8767093E+00   -5.8767093E+00
 0.7000    9.8710096E-01    6.0780955E+00   -6.0780955E+00
 0.7100    9.9068764E-01    6.2757164E+00   -6.2757164E+00
 0.7200    9.9304815E-01    6.4691193E+00   -6.4691193E+00
 0.7300    9.9421308E-01    6.6578661E+00   -6.6578661E+00
 0.7400    9.9421476E-01    6.8415343E+00   -6.8415343E+00
 0.7500    9.9308719E-01    7.0197197E+00   -7.0197197E+00
 0.7600    9.9086613E-01    7.1920390E+00   -7.1920390E+00
 0.7700    9.8758916E-01    7.3581329E+00   -7.3581329E+00
 0.7800    9.8329555E-01    7.5176680E+00   -7.5176680E+00
 0.7900    9.7802590E-01    7.6703363E+00   -7.6703363E+00
 0.8000    9.7182173E-01    7.8158541E+00   -7.8158541E+00
 0.8100    9.6472519E-01    7.9539621E+00   -7.9539621E+00
 0.8200    9.5677898E-01    8.0844261E+00   -8.0844261E+00
 0.8300    9.4802639E-01    8.2070386E+00   -8.2070386E+00
 0.8400    9.3851119E-01    8.3216202E+00   -8.3216202E+00
 0.8500    9.2827747E-01    8.4280194E+00   -8.4280194E+00
 0.8600    9.1736937E-01    8.5261114E+00   -8.5261114E+00
 0.8700    9.0583081E-01    8.6157970E+00   -8.6157970E+00
 0.8800    8.9370532E-01    8.6970017E+00   -8.6970017E+00
 0.8900    8.8103594E-01    8.7696751E+00   -8.7696751E+00
 0.9000    8.6786510E-01    8.8337907E+00   -8.8337907E+00
 0.9100    8.5423452E-01    8.8893451E+00   -8.8893451E+00
 0.9200    8.4018513E-01    8.9363570E+00   -8.9363570E+00
 0.9300    8.2575699E-01    8.9748670E+00   -8.9748670E+00
 0.9400    8.1098932E-01    9.0049376E+00   -9.0049376E+00
 0.9500    7.9592056E-01    9.0266540E+00   -9.0266540E+00
 0.9600    7.8058831E-01    9.0401237E+00   -9.0401237E+00
 0.9700    7.6502923E-01    9.0454747E+00   -9.0454747E+00
 0.9800    7.4927884E-01    9.0428533E+00   -9.0428533E+00
 0.9900    7.3337138E-01    9.0324219E+00   -9.0324219E+00
 1.0000    7.1733978E-01    9.0143576E+00   -9.0143576E+00
 1.0100    7.0121562E-01    8.9888513E+00   -8.9888513E+00
 1.0200    6.8502914E-01    8.9561065E+00   -8.9561065E+00
 1.0300    6.6880915E-01    8.9163380E+00   -8.9163380E+00
 1.0400    6.5258314E-01    8.8697707E+00   -8.8697707E+00
 1.0500    6.3637732E-01    8.8166410E+00   -8.8166410E+00
 1.0600    6.2021676E-01    8.7571965E+00   -8.7571965E+00
 1.0700    6.0412547E-01    8.6916967E+00   -8.6916967E+00
 1.0800    5.8812627E-01    8.6204106E+00   -8.6204106E+00
 1.0900    5.7224075E-01    8.5436144E+00   -8.5436144E+00
 1.1000    5.5648924E-01    8.4615905E+00   -8.4615905E+00
 1.1100    5.4089083E-01    8.3746263E+00   -8.3746263E+00
 1.1200    5.2546345E-01    8.2830146E+00   -8.2830146E+00
 1.1300    5.1022396E-01    8.1870530E+00   -8.1870530E+00
 1.1400    4.9518821E-01    8.0870450E+00   -8.0870450E+00
 1.1500    4.8037110E-01    7.9832993E+00   -7.9832993E+00
 1.1600    4.6578665E-01    7.8761300E+00   -7.8761300E+00
 1.1700    4.5144799E-01    7.7658556E+00   -7.7658556E+00
 1.1800    4.3736737E-01    7.6527981E+00   -7.6527981E+00
 1.1900    4.2355616E-01    7.5372825E+00   -7.5372825E+00
 1.2000    4.1002487E-01    7.4196353E+00   -7.4196353E+00
 1.2100    3.9678316E-01    7.3001845E+00   -7.3001845E+00
 1.2200    3.8383985E-01    7.1792584E+00   -7.1792584E+00
 1.2300    3.7120286E-01    7.0571834E+00   -7.0571834E+00
 1.2400    3.5887901E-01    6.9342787E+00   -6.9342787E+00
 1.2500    3.4687365E-01    6.8108482E+00   -6.8108482E+00
 1.2600    3.3519038E-01    6.6871720E+00   -6.6871720E+00
 1.2700    3.2383081E-01    6.5634997E+00   -6.5634997E+00
 1.2800    3.1279461E-01    6.4400474E+00   -6.4400474E+00
 1.2900    3.0207968E-01    6.3169989E+00   -6.3169989E+00
 1.3000    2.9168250E-01    6.1945098E+00   -6.1945098E+00
 1.3100    2.8159846E-01    6.0727125E+00   -6.0727125E+00
 1.3200    2.7182217E-01    5.9517215E+00   -5.9517215E+00
 1.3300    2.6234777E-01    5.8316376E+00   -5.8316376E+00
 1.3400    2.5316909E-01    5.7125516E+00   -5.7125516E+00
 1.3500    2.4427977E-01    5.5945468E+00   -5.5945468E+00
 1.3600    2.3567341E-01    5.4777004E+00   -5.4777004E+00
 1.3700    2.2734363E-01    5.3620861E+00   -5.3620861E+00
 1.3800    2.1928409E-01    5.2477744E+00   -5.2477744E+00
 1.3900    2.1148857E-01    5.1348335E+00   -5.1348335E+00
 1.4000    2.0395088E-01    5.0233277E+00   -5.0233277E+00
 1.4100    1.9666480E-01    4.9133162E+00   -4.9133162E+00
 1.4200    1.8962407E-01    4.8048521E+00   -4.8048521E+00
 1.4300    1.8282240E-01    4.6979819E+00   -4.6979819E+00
 1.4400    1.7625346E-01    4.5927467E+00   -4.5927467E+00
 1.4500    1.6991097E-01    4.4891829E+00   -4.4891829E+00
 1.4600    1.6378877E-01    4.3873238E+00   -4.3873238E+00
 1.4700    1.5788078E-01    4.2872005E+00   -4.2872005E+00
 1.4800    1.5218108E-01    4.1888419E+00   -4.1888419E+00
 1.4900    1.4668385E-01    4.0922740E+00   -4.0922740E+00
 1.5000    1.4138330E-01    3.9975185E+00   -3.9975185E+00
 1.5100    1.3627365E-01    3.9045918E+00   -3.9045918E+00
 1.5200    1.3134918E-01    3.8135056E+00   -3.8135056E+00
 1.5300    1.2660421E-01    3.7242676E+00   -3.7242676E+00
 1.5400    1.2203319E-01    3.6368826E+00   -3.6368826E+00
 1.5500    1.1763068E-01    3.5513533E+00   -3.5513533E+00
 1.5600    1.1339135E-01    3.4676798E+00   -3.4676798E+00
 1.5700    1.0930996E-01    3.3858592E+00   -3.3858592E+00
 1.5800    1.0538132E-01    3.3058844E+00   -3.3058844E+00
 1.5900    1.0160031E-01    3.2277443E+00   -3.2277443E+00
 1.6000    9.7961885E-02    3.1514249E+00   -3.1514249E+00
 1.6100    9.4461150E-02    3.0769103E+00   -3.0769103E+00
 1.6200    9.1093336E-02    3.0041838E+00   -3.0041838E+00
 1.6300    8.7853806E-02    2.9332269E+00   -2.9332269E+00
 1.6400    8.4738016E-02    2.8640187E+00   -2.8640187E+00
 1.6500    8.1741499E-02    2.7965356E+00   -2.7965356E+00
 1.6600    7.8859887E-02    2.7307515E+00   -2.7307515E+00
 1.6700    7.6088923E-02    2.6666391E+00   -2.6666391E+00
 1.6800    7.3424488E-02    2.6041701E+00   -2.6041701E+00
 1.6900    7.0862591E-02    2.5433159E+00   -2.5433159E+00
 1.7000    6.8399351E-02    2.4840463E+00   -2.4840463E+00
 1.7100    6.6030986E-02    2.4263300E+00   -2.4263300E+00
 1.7200    6.3753811E-02    2.3701341E+00   -2.3701341E+00
 1.7300    6.1564259E-02    2.3154251E+00   -2.3154251E+00
 1.7400    5.9458897E-02    2.2621699E+00   -2.2621699E+00
 1.7500    5.7434434E-02    2.2103360E+00   -2.2103360E+00
 1.7600    5.5487705E-02    2.1598917E+00   -2.1598917E+00
 1.7700    5.3615658E-02    2.1108046E+00   -2.1108046E+00
 1.7800    5.1815327E-02    2.0630422E+00   -2.0630422E+00
 1.7900    5.0083837E-02    2.0165710E+00   -2.0165710E+00
 1.8000    4.8418420E-02    1.9713579E+00   -1.9713579E+00
 1.8100    4.6816432E-02    1.9273710E+00   -1.9273710E+00
 1.8200    4.5275356E-02    1.8845797E+00   -1.8845797E+00
 1.8300    4.3792770E-02    1.8429538E+00   -1.8429538E+00
 1.8400    4.2366306E-02    1.8024620E+00   -1.8024620E+00
 1.8500    4.0993638E-02    1.7630709E+00   -1.7630709E+00
 1.8600    3.9672516E-02    1.7247474E+00   -1.7247474E+00
 1.8700    3.8400834E-02    1.6874609E+00   -1.6874609E+00
 1.8800    3.7176664E-02    1.6511859E+00   -1.6511859E+00
 1.8900    3.5998237E-02    1.6159008E+00   -1.6159008E+00
 1.9000    3.4863861E-02    1.5815850E+00   -1.5815850E+00
 1.9100    3.3771867E-02    1.5482164E+00   -1.5482164E+00
 1.9200    3.2720595E-02    1.5157707E+00   -1.5157707E+00
 1.9300    3.1708430E-02    1.4842232E+00   -1.4842232E+00
 1.9400    3.0733844E-02    1.4535508E+00   -1.4535508E+00
 1.9500    2.9795412E-02    1.4237327E+00   -1.4237327E+00
 1.9600    2.8891800E-02    1.3947507E+00   -1.3947507E+00
 1.9700    2.8021736E-02    1.3665872E+00   -1.3665872E+00
 1.9800    2.7183969E-02    1.3392236E+00   -1.3392236E+00
 1.9900    2.6377242E-02    1.3126393E+00   -1.3126393E+00
 2.0000    2.5600290E-02    1.2868109E+00   -1.2868109E+00
 2.0100    2.4851863E-02    1.2617140E+00   -1.2617140E+00
 2.0200    2.4130781E-02    1.2373256E+00   -1.2373256E+00
 2.0300    2.3435965E-02    1.2136257E+00   -1.2136257E+00
 2.0400    2.2766438E-02    1.1905984E+00   -1.1905984E+00
 2.0500    2.2121302E-02    1.1682298E+00   -1.1682298E+00
 2.0600    2.1499689E-02    1.1465064E+00   -1.1465064E+00
 2.0700    2.0900725E-02    1.1254130E+00   -1.1254130E+00
 2.0800    2.0323526E-02    1.1049321E+00   -1.1049321E+00
 2.0900    1.9767221E-02    1.0850457E+00   -1.0850457E+00
 2.1000    1.9230990E-02    1.0657371E+00   -1.0657371E+00
 2.1100    1.8714091E-02    1.0469924E+00   -1.0469924E+00
 2.1200    1.8215847E-02    1.0288000E+00   -1.0288000E+00
 2.1300    1.7735610E-02    1.0111491E+00   -1.0111491E+00
 2.1400    1.7272724E-02    9.9402714E-01   -9.9402714E-01
 2.1500    1.6826500E-02    9.7741856E-01   -9.7741856E-01
 2.1600    1.6396212E-02    9.6130431E-01   -9.6130431E-01
 2.1700    1.5981101E-02    9.4566218E-01   -9.4566218E-01
 2.1800    1.5580407E-02    9.3046844E-01   -9.3046844E-01
 2.1900    1.5193418E-02    9.1570080E-01   -9.1570080E-01
 2.2000    1.4819521E-02    9.0134154E-01   -9.0134154E-01
 2.2100    1.4458219E-02    8.8737910E-01   -8.8737910E-01
 2.2200    1.4109110E-02    8.7380682E-01   -8.7380682E-01
 2.2300    1.3771833E-02    8.6061981E-01   -8.6061981E-01
 2.2400    1.3446013E-02    8.4781174E-01   -8.4781174E-01
 2.2500    1.3131238E-02    8.3537326E-01   -8.3537326E-01
 2.2600    1.2827068E-02    8.2329245E-01   -8.2329245E-01
 2.2700    1.2533057E-02    8.1155619E-01   -8.1155619E-01
 2.2800    1.2248770E-02    8.0015115E-01   -8.0015115E-01
 2.2900    1.1973778E-02    7.8906363E-01   -7.8906363E-01
 2.3000    1.1707651E-02    7.7827896E-01   -7.7827896E-01
 2.3100    1.1449956E-02    7.6778153E-01   -7.6778153E-01
 2.3200    1.1200274E-02    7.5755557E-01   -7.5755557E-01
 2.3300    1.0958209E-02    7.4758619E-01   -7.4758619E-01
 2.3400    1.0723404E-02    7.3786051E-01   -7.3786051E-01
 2.3500    1.0495566E-02    7.2836897E-01   -7.2836897E-01
 2.3600    1.0274469E-02    7.1910656E-01   -7.1910656E-01
 2.3700    1.0059958E-02    7.1007254E-01   -7.1007254E-01
 2.3800    9.8519014E-03    7.0126770E-01   -7.0126770E-01
 2.3900    9.6501338E-03    6.9269013E-01   -6.9269013E-01
 2.4000    9.4544138E-03    6.8433217E-01   -6.8433217E-01
 2.4100    9.2644348E-03    6.7618087E-01   -6.7618087E-01
 2.4200    9.0798756E-03    6.6822157E-01   -6.6822157E-01
 2.4300    8.9004563E-03    6.6044200E-01   -6.6044200E-01
 2.4400    8.7259646E-03    6.5283430E-01   -6.5283430E-01
 2.4500    8.5562473E-03    6.4539465E-01   -6.4539465E-01
 2.4600    8.3911881E-03    6.3812173E-01   -6.3812173E-01
 2.4700    8.2306892E-03    6.3101542E-01   -6.3101542E-01
 2.4800    8.0746565E-03    6.2407572E-01   -6.2407572E-01
 2.4900    7.9229798E-03    6.1730118E-01   -6.1730118E-01
 2.5000    7.7755081E-03    6.1068698E-01   -6.1068698E-01
 2.5100    7.6320406E-03    6.0422401E-01   -6.0422401E-01
 2.5200    7.4923475E-03    5.9790042E-01   -5.9790042E-01
 2.5300    7.3562157E-03    5.9170516E-01   -5.9170516E-01
 2.5400    7.2234945E-03    5.8563179E-01   -5.8563179E-01
 2.5500    7.0941128E-03    5.7968000E-01   -5.7968000E-01
 2.5600    6.9680530E-03    5.7385377E-01   -5.7385377E-01
 2.5700    6.8452909E-03    5.6815655E-01   -5.6815655E-01
 2.5800    6.7257404E-03    5.6258659E-01   -5.6258659E-01
 2.5900    6.6092414E-03    5.5713572E-01   -5.5713572E-01
 2.6000    6.4956037E-03    5.5179287E-01   -5.5179287E-01
 2.6100    6.3846722E-03    5.4654948E-01   -5.4654948E-01
 2.6200    6.2763535E-03    5.4140199E-01   -5.4140199E-01
 2.6300    6.1705786E-03    5.3634872E-01   -5.3634872E-01
 2.6400    6.0672351E-03    5.3138408E-01   -5.3138408E-01
 2.6500    5.9661466E-03    5.2649655E-01   -5.2649655E-01
 2.6600    5.8671360E-03    5.2167412E-01   -5.2167412E-01
 2.6700    5.7701291E-03    5.1691355E-01   -5.1691355E-01
 2.6800    5.6752017E-03    5.1222498E-01   -5.1222498E-01
 2.6900    5.5825206E-03    5.0762705E-01   -5.0762705E-01
 2.7000    5.4922179E-03    5.0313572E-01   -5.0313572E-01
 2.7100    5.4042920E-03    4.9875498E-01   -4.9875498E-01
 2.7200    5.3185991E-03    4.9447567E-01   -4.9447567E-01
 2.7300    5.2349296E-03    4.9028206E-01   -4.9028206E-01
 2.7400    5.1531025E-03    4.8616062E-01   -4.8616062E-01
 2.7500    5.0730090E-03    4.8210416E-01   -4.8210416E-01
 2.7600    4.9945841E-03    4.7810948E-01   -4.7810948E-01
 2.7700    4.9177526E-03    4.7417219E-01   -4.7417219E-01
 2.7800    4.8424084E-03    4.7028472E-01   -4.7028472E-01
 2.7900    4.7684478E-03    4.6643948E-01   -4.6643948E-01
 2.8000    4.6958222E-03    4.6263403E-01   -4.6263403E-01
 2.8100    4.6245638E-03    4.5887381E-01   -4.5887381E-01
 2.8200    4.5547650E-03    4.5517044E-01   -4.5517044E-01
 2.8300    4.4865255E-03    4.5153651E-01   -4.5153651E-01
 2.8400    4.4198891E-03    4.4797927E-01   -4.4797927E-01
 2.8500    4.3547933E-03    4.4449525E-01   -4.4449525E-01
 2.8600    4.2910478E-03    4.4106773E-01   -4.4106773E-01
 2.8700    4.2283639E-03    4.3766923E-01   -4.3766923E-01
 2.8800    4.1664433E-03    4.3427049E-01   -4.3427049E-01
 2.8900    4.1051065E-03    4.3085385E-01   -4.3085385E-01
 2.9000    4.0443882E-03    4.2742379E-01   -4.2742379E-01
 2.9100    3.9845168E-03    4.2400551E-01   -4.2400551E-01
 2.9200    3.9257591E-03    4.2062900E-01   -4.2062900E-01
 2.9300    3.8682222E-03    4.1730781E-01   -4.1730781E-01
 2.9400    3.8117558E-03    4.1402789E-01   -4.1402789E-01
 2.9500    3.7560378E-03    4.1075594E-01   -4.1075594E-01
 2.9600    3.7007918E-03    4.0746277E-01   -4.0746277E-01
 2.9700    3.6459778E-03    4.0414460E-01   -4.0414460E-01
 2.9800    3.5918120E-03    4.0082610E-01   -4.0082610E-01
 2.9900    3.5386035E-03    3.9754303E-01   -3.9754303E-01
 3.0000    3.4865436E-03    3.9431879E-01   -3.9431879E-01
 3.0100    3.4356127E-03    3.9115335E-01   -3.9115335E-01
 3.0200    3.3856555E-03    3.8803108E-01   -3.8803108E-01
 3.0300    3.3365315E-03    3.8493761E-01   -3.8493761E-01
 3.0400    3.2882067E-03    3.8187052E-01   -3.8187052E-01
 3.0500    3.2407250E-03    3.7883642E-01   -3.7883642E-01
 3.0600    3.1941129E-03    3.7583998E-01   -3.7583998E-01
 3.0700    3.1483191E-03    3.7287680E-01   -3.7287680E-01
 3.0800    3.1032436E-03    3.6993649E-01   -3.6993649E-01
 3.0900    3.0588214E-03    3.6701257E-01   -3.6701257E-01
 3.1000    3.0150789E-03    3.6410943E-01   -3.6410943E-01
 3.1100    2.9721078E-03    3.6123948E-01   -3.6123948E-01
 3.1200    2.9299776E-03    3.5841267E-01   -3.5841267E-01
 3.1300    2.8886578E-03    3.5562692E-01   -3.5562692E-01
 3.1400    2.8480115E-03    3.5286688E-01   -3.5286688E-01
 3.1500    2.8078615E-03    3.5011172E-01   -3.5011172E-01
 3.1600    2.7680784E-03    3.4734610E-01   -3.4734610E-01
 3.1700    2.7286405E-03    3.4456782E-01   -3.4456782E-01
 3.1800    2.6896394E-03    3.4178907E-01   -3.4178907E-01
 3.1900    2.6512359E-03    3.3903115E-01   -3.3903115E-01
 3.2000    2.6135835E-03    3.3631497E-01   -3.3631497E-01
 3.2100    2.5767535E-03    3.3365129E-01   -3.3365129E-01
 3.2200    2.5407003E-03    3.3103587E-01   -3.3103587E-01
 3.2300    2.5052894E-03    3.2845268E-01   -3.2845268E-01
 3.2400    2.4703708E-03    3.2588324E-01   -3.2588324E-01
 3.2500    2.4358575E-03    3.2331694E-01   -3.2331694E-01
 3.2600    2.4017675E-03    3.2075692E-01   -3.2075692E-01
 3.2700    2.3681986E-03    3.1821708E-01   -3.1821708E-01
 3.2800    2.3352375E-03    3.1571020E-01   -3.1571020E-01
 3.2900    2.3028513E-03    3.1323304E-01   -3.1323304E-01
 3.3000    2.2708477E-03    3.1076046E-01   -3.1076046E-01
 3.3100    2.2389604E-03    3.0825651E-01   -3.0825651E-01
 3.3200    2.2070174E-03    3.0569744E-01   -3.0569744E-01
 3.3300    2.1750693E-03    3.0308987E-01   -3.0308987E-01
 3.3400    2.1433692E-03    3.0046908E-01   -3.0046908E-01
 3.3500    2.1122172E-03    2.9787775E-01   -2.9787775E-01
 3.3600    2.0817854E-03    2.9534143E-01   -2.9534143E-01
