# total charge: 10.000000 
# r(A)     rho (e/A^3)     4*pi*r^2*rho(e/A)  dip  
 0.0000   -1.2398091E+00   -0.0000000E+00    7.9788456E+01
 0.0100   -1.2350037E+00   -1.5519514E-03    7.9392061E+01
 0.0200   -1.2289349E+00   -6.1773004E-03    7.8214716E+01
 0.0300   -1.2213506E+00   -1.3813150E-02    7.6291376E+01
 0.0400   -1.2119851E+00   -2.4368407E-02    7.3678396E+01
 0.0500   -1.2005492E+00   -3.7716365E-02    7.0450782E+01
 0.0600   -1.1867246E+00   -5.3686155E-02    6.6698607E+01
 0.0700   -1.1701915E+00   -7.2054793E-02    6.2522841E+01
 0.0800   -1.1506938E+00   -9.2544287E-02    5.8030855E+01
 0.0900   -1.1281056E+00   -1.1482716E-01    5.3331877E+01
 0.1000   -1.1024507E+00   -1.3853805E-01    4.8532683E+01
 0.1100   -1.0738659E+00   -1.6328463E-01    4.3733720E+01
 0.1200   -1.0425376E+00   -1.8865316E-01    3.9025864E+01
 0.1300   -1.0086502E+00   -2.1420872E-01    3.4487927E+01
 0.1400   -9.7236337E-01   -2.3949394E-01    3.0184987E+01
 0.1500   -9.3381417E-01   -2.6402974E-01    2.6167549E+01
 0.1600   -8.9313084E-01   -2.8731938E-01    2.2471486E+01
 0.1700   -8.5044550E-01   -3.0885469E-01    1.9118670E+01
 0.1800   -8.0589746E-01   -3.2812148E-01    1.6118153E+01
 0.1900   -7.5962662E-01   -3.4460156E-01    1.3467765E+01
 0.2000   -7.1176405E-01   -3.5777163E-01    1.1155965E+01
 0.2100   -6.6242829E-01   -3.6710249E-01    9.1638217E+00
 0.2200   -6.1173072E-01   -3.7206217E-01    7.4669807E+00
 0.2300   -5.5978518E-01   -3.7212336E-01    6.0375309E+00
 0.2400   -5.0671503E-01   -3.6677196E-01    4.8456780E+00
 0.2500   -4.5265412E-01   -3.5551371E-01    3.8611738E+00
 0.2600   -3.9774353E-01   -3.3787782E-01    3.0544717E+00
 0.2700   -3.4212716E-01   -3.1341872E-01    2.3976057E+00
 0.2800   -2.8594819E-01   -2.8171715E-01    1.8648075E+00
 0.2900   -2.2934720E-01   -2.4238141E-01    1.4328879E+00
 0.3000   -1.7246152E-01   -1.9504938E-01    1.0814191E+00
 0.3100   -1.1542569E-01   -1.3939132E-01    7.9275513E-01
 0.3200   -5.8372200E-02   -7.5113134E-02    5.5193077E-01
 0.3300   -1.4320863E-03   -1.9597782E-03    3.4647357E-01
 0.3400    5.5265139E-02    8.0282144E-02    1.6616169E-01
 0.3500    1.1159209E-01    1.7178267E-01    2.7538655E-03
 0.3600    1.6742455E-01    2.7266789E-01   -1.5028750E-01
 0.3700    2.2264249E-01    3.8301992E-01   -2.9806386E-01
 0.3800    2.7713052E-01    5.0287659E-01   -4.4448720E-01
 0.3900    3.3077758E-01    6.3223006E-01   -5.9249897E-01
 0.4000    3.8347624E-01    7.7102473E-01   -7.4425869E-01
 0.4100    4.3512245E-01    9.1915566E-01   -9.0130332E-01
 0.4200    4.8561605E-01    1.0764689E+00   -1.0646803E+00
 0.4300    5.3486201E-01    1.2427636E+00   -1.2350566E+00
 0.4400    5.8277159E-01    1.4177955E+00   -1.4128070E+00
 0.4500    6.2926296E-01    1.6012792E+00   -1.5980824E+00
 0.4600    6.7426118E-01    1.7928902E+00   -1.7908620E+00
 0.4700    7.1769776E-01    1.9922653E+00   -1.9909913E+00
 0.4800    7.5950994E-01    2.1990029E+00   -2.1982106E+00
 0.4900    7.9964001E-01    2.4126623E+00   -2.4121745E+00
 0.5000    8.3803522E-01    2.6327653E+00   -2.6324680E+00
 0.5100    8.7464840E-01    2.8587997E+00   -2.8586202E+00
 0.5200    9.0943903E-01    3.0902253E+00   -3.0901181E+00
 0.5300    9.4237389E-01    3.3264795E+00   -3.3264160E+00
 0.5400    9.7342659E-01    3.5669793E+00   -3.5669422E+00
 0.5500    1.0025765E+00    3.8111212E+00   -3.8110997E+00
 0.5600    1.0298078E+00    4.0582807E+00   -4.0582683E+00
 0.5700    1.0551092E+00    4.3078145E+00   -4.3078075E+00
 0.5800    1.0784749E+00    4.5590661E+00   -4.5590622E+00
 0.5900    1.0999043E+00    4.8113705E+00   -4.8113683E+00
 0.6000    1.1194027E+00    5.0640583E+00   -5.0640571E+00
 0.6100    1.1369801E+00    5.3164579E+00   -5.3164572E+00
 0.6200    1.1526513E+00    5.5678970E+00   -5.5678966E+00
 0.6300    1.1664356E+00    5.8177055E+00   -5.8177053E+00
 0.6400    1.1783566E+00    6.0652201E+00   -6.0652200E+00
 0.6500    1.1884427E+00    6.3097887E+00   -6.3097886E+00
 0.6600    1.1967263E+00    6.5507730E+00   -6.5507730E+00
 0.6700    1.2032437E+00    6.7875504E+00   -6.7875504E+00
 0.6800    1.2080346E+00    7.0195141E+00   -7.0195141E+00
 0.6900    1.2111412E+00    7.2460751E+00   -7.2460751E+00
 0.7000    1.2126088E+00    7.4666648E+00   -7.4666648E+00
 0.7100    1.2124852E+00    7.6807388E+00   -7.6807388E+00
 0.7200    1.2108208E+00    7.8877792E+00   -7.8877792E+00
 0.7300    1.2076686E+00    8.0872963E+00   -8.0872963E+00
 0.7400    1.2030830E+00    8.2788285E+00   -8.2788285E+00
 0.7500    1.1971199E+00    8.4619423E+00   -8.4619423E+00
 0.7600    1.1898368E+00    8.6362346E+00   -8.6362346E+00
 0.7700    1.1812920E+00    8.8013351E+00   -8.8013351E+00
 0.7800    1.1715452E+00    8.9569084E+00   -8.9569084E+00
 0.7900    1.1606572E+00    9.1026538E+00   -9.1026538E+00
 0.8000    1.1486890E+00    9.2383048E+00   -9.2383048E+00
 0.8100    1.1357018E+00    9.3636290E+00   -9.3636290E+00
 0.8200    1.1217571E+00    9.4784295E+00   -9.4784295E+00
 0.8300    1.1069165E+00    9.5825460E+00   -9.5825460E+00
 0.8400    1.0912415E+00    9.6758539E+00   -9.6758539E+00
 0.8500    1.0747929E+00    9.7582624E+00   -9.7582624E+00
 0.8600    1.0576308E+00    9.8297130E+00   -9.8297130E+00
 0.8700    1.0398144E+00    9.8901798E+00   -9.8901798E+00
 0.8800    1.0214022E+00    9.9396711E+00   -9.9396711E+00
 0.8900    1.0024521E+00    9.9782295E+00   -9.9782295E+00
 0.9000    9.8302056E-01    1.0005931E+01   -1.0005931E+01
 0.9100    9.6316324E-01    1.0022880E+01   -1.0022880E+01
 0.9200    9.4293421E-01    1.0029214E+01   -1.0029214E+01
 0.9300    9.2238623E-01    1.0025097E+01   -1.0025097E+01
 0.9400    9.0157074E-01    1.0010721E+01   -1.0010721E+01
 0.9500    8.8053775E-01    9.9863103E+00   -9.9863103E+00
 0.9600    8.5933582E-01    9.9521117E+00   -9.9521117E+00
 0.9700    8.3801189E-01    9.9083996E+00   -9.9083996E+00
 0.9800    8.1661130E-01    9.8554713E+00   -9.8554713E+00
 0.9900    7.9517767E-01    9.7936466E+00   -9.7936466E+00
 1.0000    7.7375296E-01    9.7232664E+00   -9.7232664E+00
 1.0100    7.5237743E-01    9.6446922E+00   -9.6446922E+00
 1.0200    7.3108970E-01    9.5583047E+00   -9.5583047E+00
 1.0300    7.0992672E-01    9.4645035E+00   -9.4645035E+00
 1.0400    6.8892373E-01    9.3637043E+00   -9.3637043E+00
 1.0500    6.6811422E-01    9.2563374E+00   -9.2563374E+00
 1.0600    6.4752981E-01    9.1428451E+00   -9.1428451E+00
 1.0700    6.2720040E-01    9.0236813E+00   -9.0236813E+00
 1.0800    6.0715433E-01    8.8993127E+00   -8.8993127E+00
 1.0900    5.8741852E-01    8.7702201E+00   -8.7702201E+00
 1.1000    5.6801862E-01    8.6368983E+00   -8.6368983E+00
 1.1100    5.4897893E-01    8.4998546E+00   -8.4998546E+00
 1.1200    5.3032225E-01    8.3596050E+00   -8.3596050E+00
 1.1300    5.1206981E-01    8.2166714E+00   -8.2166714E+00
 1.1400    4.9424119E-01    8.0715791E+00   -8.0715791E+00
 1.1500    4.7685430E-01    7.9248536E+00   -7.9248536E+00
 1.1600    4.5992511E-01    7.7770155E+00   -7.7770155E+00
 1.1700    4.4346720E-01    7.6285693E+00   -7.6285693E+00
 1.1800    4.2749112E-01    7.4799892E+00   -7.4799892E+00
 1.1900    4.1200366E-01    7.3317030E+00   -7.3317030E+00
 1.2000    3.9700754E-01    7.1840792E+00   -7.1840792E+00
 1.2100    3.8250138E-01    7.0374223E+00   -7.0374223E+00
 1.2200    3.6848030E-01    6.8919767E+00   -6.8919767E+00
 1.2300    3.5493670E-01    6.7479367E+00   -6.7479367E+00
 1.2400    3.4186111E-01    6.6054579E+00   -6.6054579E+00
 1.2500    3.2924282E-01    6.4646676E+00   -6.4646676E+00
 1.2600    3.1707044E-01    6.3256727E+00   -6.3256727E+00
 1.2700    3.0533223E-01    6.1885649E+00   -6.1885649E+00
 1.2800    2.9401634E-01    6.0534265E+00   -6.0534265E+00
 1.2900    2.8311102E-01    5.9203320E+00   -5.9203320E+00
 1.3000    2.7260463E-01    5.7893499E+00   -5.7893499E+00
 1.3100    2.6248565E-01    5.6605421E+00   -5.6605421E+00
 1.3200    2.5274268E-01    5.5339638E+00   -5.5339638E+00
 1.3300    2.4336437E-01    5.4096621E+00   -5.4096621E+00
 1.3400    2.3433947E-01    5.2876767E+00   -5.2876767E+00
 1.3500    2.2565679E-01    5.1680392E+00   -5.1680392E+00
 1.3600    2.1730531E-01    5.0507749E+00   -5.0507749E+00
 1.3700    2.0927423E-01    4.9359045E+00   -4.9359045E+00
 1.3800    2.0155307E-01    4.8234465E+00   -4.8234465E+00
 1.3900    1.9413168E-01    4.7134171E+00   -4.7134171E+00
 1.4000    1.8700016E-01    4.6058302E+00   -4.6058302E+00
 1.4100    1.8014884E-01    4.5006948E+00   -4.5006948E+00
 1.4200    1.7356816E-01    4.3980140E+00   -4.3980140E+00
 1.4300    1.6724869E-01    4.2977848E+00   -4.2977848E+00
 1.4400    1.6118120E-01    4.1999996E+00   -4.1999996E+00
 1.4500    1.5535670E-01    4.1046474E+00   -4.1046474E+00
 1.4600    1.4976647E-01    4.0117158E+00   -4.0117158E+00
 1.4700    1.4440208E-01    3.9211910E+00   -3.9211910E+00
 1.4800    1.3925539E-01    3.8330573E+00   -3.8330573E+00
 1.4900    1.3431846E-01    3.7472970E+00   -3.7472970E+00
 1.5000    1.2958355E-01    3.6638885E+00   -3.6638885E+00
 1.5100    1.2504306E-01    3.5828064E+00   -3.5828064E+00
 1.5200    1.2068958E-01    3.5040218E+00   -3.5040218E+00
 1.5300    1.1651587E-01    3.4275029E+00   -3.4275029E+00
 1.5400    1.1251493E-01    3.3532155E+00   -3.3532155E+00
 1.5500    1.0867994E-01    3.2811242E+00   -3.2811242E+00
 1.5600    1.0500431E-01    3.2111915E+00   -3.2111915E+00
 1.5700    1.0148165E-01    3.1433786E+00   -3.1433786E+00
 1.5800    9.8105752E-02    3.0776449E+00   -3.0776449E+00
 1.5900    9.4870602E-02    3.0139481E+00   -3.0139481E+00
 1.6000    9.1770378E-02    2.9522447E+00   -2.9522447E+00
 1.6100    8.8799452E-02    2.8924902E+00   -2.8924902E+00
 1.6200    8.5952383E-02    2.8346394E+00   -2.8346394E+00
 1.6300    8.3223900E-02    2.7786454E+00   -2.7786454E+00
 1.6400    8.0608892E-02    2.7244605E+00   -2.7244605E+00
 1.6500    7.8102413E-02    2.6720354E+00   -2.6720354E+00
 1.6600    7.5699699E-02    2.6213209E+00   -2.6213209E+00
 1.6700    7.3396181E-02    2.5722683E+00   -2.5722683E+00
 1.6800    7.1187482E-02    2.5248295E+00   -2.5248295E+00
 1.6900    6.9069390E-02    2.4789564E+00   -2.4789564E+00
 1.7000    6.7037834E-02    2.4346003E+00   -2.4346003E+00
 1.7100    6.5088867E-02    2.3917115E+00   -2.3917115E+00
 1.7200    6.3218672E-02    2.3502395E+00   -2.3502395E+00
 1.7300    6.1423579E-02    2.3101341E+00   -2.3101341E+00
 1.7400    5.9700094E-02    2.2713464E+00   -2.2713464E+00
 1.7500    5.8044905E-02    2.2338297E+00   -2.2338297E+00
 1.7600    5.6454874E-02    2.1975392E+00   -2.1975392E+00
 1.7700    5.4927010E-02    2.1624315E+00   -2.1624315E+00
 1.7800    5.3458445E-02    2.1284634E+00   -2.1284634E+00
 1.7900    5.2046418E-02    2.0955922E+00   -2.0955922E+00
 1.8000    5.0688288E-02    2.0637757E+00   -2.0637757E+00
 1.8100    4.9381545E-02    2.0329734E+00   -2.0329734E+00
 1.8200    4.8123817E-02    2.0031465E+00   -2.0031465E+00
 1.8300    4.6912843E-02    1.9742575E+00   -1.9742575E+00
 1.8400    4.5746443E-02    1.9462689E+00   -1.9462689E+00
 1.8500    4.4622501E-02    1.9191425E+00   -1.9191425E+00
 1.8600    4.3538990E-02    1.8928409E+00   -1.8928409E+00
 1.8700    4.2494022E-02    1.8673293E+00   -1.8673293E+00
 1.8800    4.1485878E-02    1.8425779E+00   -1.8425779E+00
 1.8900    4.0512983E-02    1.8185602E+00   -1.8185602E+00
 1.9000    3.9573847E-02    1.7952517E+00   -1.7952517E+00
 1.9100    3.8667016E-02    1.7726266E+00   -1.7726266E+00
 1.9200    3.7791057E-02    1.7506582E+00   -1.7506582E+00
 1.9300    3.6944592E-02    1.7293200E+00   -1.7293200E+00
 1.9400    3.6126329E-02    1.7085872E+00   -1.7085872E+00
 1.9500    3.5335074E-02    1.6884379E+00   -1.6884379E+00
 1.9600    3.4569723E-02    1.6688523E+00   -1.6688523E+00
 1.9700    3.3829232E-02    1.6498120E+00   -1.6498120E+00
 1.9800    3.3112585E-02    1.6312981E+00   -1.6312981E+00
 1.9900    3.2418765E-02    1.6132902E+00   -1.6132902E+00
 2.0000    3.1746755E-02    1.5957660E+00   -1.5957660E+00
 2.0100    3.1095555E-02    1.5787025E+00   -1.5787025E+00
 2.0200    3.0464224E-02    1.5620780E+00   -1.5620780E+00
 2.0300    2.9851908E-02    1.5458738E+00   -1.5458738E+00
 2.0400    2.9257843E-02    1.5300742E+00   -1.5300742E+00
 2.0500    2.8681336E-02    1.5146663E+00   -1.5146663E+00
 2.0600    2.8121726E-02    1.4996374E+00   -1.4996374E+00
 2.0700    2.7578355E-02    1.4849742E+00   -1.4849742E+00
 2.0800    2.7050555E-02    1.4706615E+00   -1.4706615E+00
 2.0900    2.6537670E-02    1.4566836E+00   -1.4566836E+00
 2.1000    2.6039082E-02    1.4430259E+00   -1.4430259E+00
 2.1100    2.5554234E-02    1.4296760E+00   -1.4296760E+00
 2.1200    2.5082622E-02    1.4166238E+00   -1.4166238E+00
 2.1300    2.4623773E-02    1.4038596E+00   -1.4038596E+00
 2.1400    2.4177208E-02    1.3913730E+00   -1.3913730E+00
 2.1500    2.3742432E-02    1.3791515E+00   -1.3791515E+00
 2.1600    2.3318918E-02    1.3671802E+00   -1.3671802E+00
 2.1700    2.2906119E-02    1.3554417E+00   -1.3554417E+00
 2.1800    2.2503488E-02    1.3439177E+00   -1.3439177E+00
 2.1900    2.2110514E-02    1.3325912E+00   -1.3325912E+00
 2.2000    2.1726767E-02    1.3214488E+00   -1.3214488E+00
 2.2100    2.1351903E-02    1.3104818E+00   -1.3104818E+00
 2.2200    2.0985652E-02    1.2996855E+00   -1.2996855E+00
 2.2300    2.0627771E-02    1.2890563E+00   -1.2890563E+00
 2.2400    2.0278005E-02    1.2785895E+00   -1.2785895E+00
 2.2500    1.9936077E-02    1.2682784E+00   -1.2682784E+00
 2.2600    1.9601690E-02    1.2581148E+00   -1.2581148E+00
 2.2700    1.9274546E-02    1.2480895E+00   -1.2480895E+00
 2.2800    1.8954355E-02    1.2381936E+00   -1.2381936E+00
 2.2900    1.8640835E-02    1.2284181E+00   -1.2284181E+00
 2.3000    1.8333701E-02    1.2187529E+00   -1.2187529E+00
 2.3100    1.8032668E-02    1.2091880E+00   -1.2091880E+00
 2.3200    1.7737462E-02    1.1997129E+00   -1.1997129E+00
 2.3300    1.7447828E-02    1.1903182E+00   -1.1903182E+00
 2.3400    1.7163538E-02    1.1809959E+00   -1.1809959E+00
 2.3500    1.6884410E-02    1.1717406E+00   -1.1717406E+00
 2.3600    1.6610313E-02    1.1625501E+00   -1.1625501E+00
 2.3700    1.6341164E-02    1.1534255E+00   -1.1534255E+00
 2.3800    1.6076901E-02    1.1443691E+00   -1.1443691E+00
 2.3900    1.5817440E-02    1.1353816E+00   -1.1353816E+00
 2.4000    1.5562638E-02    1.1264595E+00   -1.1264595E+00
 2.4100    1.5312307E-02    1.1175953E+00   -1.1175953E+00
 2.4200    1.5066244E-02    1.1087805E+00   -1.1087805E+00
 2.4300    1.4824277E-02    1.1000083E+00   -1.1000083E+00
 2.4400    1.4586284E-02    1.0912750E+00   -1.0912750E+00
 2.4500    1.4352186E-02    1.0825802E+00   -1.0825802E+00
 2.4600    1.4121931E-02    1.0739255E+00   -1.0739255E+00
 2.4700    1.3895482E-02    1.0653134E+00   -1.0653134E+00
 2.4800    1.3672804E-02    1.0567465E+00   -1.0567465E+00
 2.4900    1.3453846E-02    1.0482262E+00   -1.0482262E+00
 2.5000    1.3238526E-02    1.0397514E+00   -1.0397514E+00
 2.5100    1.3026725E-02    1.0313179E+00   -1.0313179E+00
 2.5200    1.2818299E-02    1.0229193E+00   -1.0229193E+00
 2.5300    1.2613118E-02    1.0145498E+00   -1.0145498E+00
 2.5400    1.2411094E-02    1.0062071E+00   -1.0062071E+00
 2.5500    1.2212198E-02    9.9789320E-01   -9.9789320E-01
 2.5600    1.2016439E-02    9.8961340E-01   -9.8961340E-01
 2.5700    1.1823820E-02    9.8137262E-01   -9.8137262E-01
 2.5800    1.1634301E-02    9.7317197E-01   -9.7317197E-01
 2.5900    1.1447785E-02    9.6500785E-01   -9.6500785E-01
 2.6000    1.1264150E-02    9.5687452E-01   -9.5687452E-01
 2.6100    1.1083302E-02    9.4876803E-01   -9.4876803E-01
 2.6200    1.0905189E-02    9.4068811E-01   -9.4068811E-01
 2.6300    1.0729779E-02    9.3263592E-01   -9.3263592E-01
 2.6400    1.0557007E-02    9.2460988E-01   -9.2460988E-01
 2.6500    1.0386762E-02    9.1660406E-01   -9.1660406E-01
 2.6600    1.0218927E-02    9.0861195E-01   -9.0861195E-01
 2.6700    1.0053458E-02    9.0063300E-01   -9.0063300E-01
 2.6800    9.8904127E-03    8.9267602E-01   -8.9267602E-01
 2.6900    9.7299144E-03    8.8475585E-01   -8.8475585E-01
 2.7000    9.5720624E-03    8.7688555E-01   -8.7688555E-01
 2.7100    9.4168626E-03    8.6906984E-01   -8.6906984E-01
 2.7200    9.2642204E-03    8.6130417E-01   -8.6130417E-01
 2.7300    9.1139932E-03    8.5357927E-01   -8.5357927E-01
 2.7400    8.9660577E-03    8.4588733E-01   -8.4588733E-01
 2.7500    8.8203408E-03    8.3822501E-01   -8.3822501E-01
 2.7600    8.6768011E-03    8.3059186E-01   -8.3059186E-01
 2.7700    8.5353904E-03    8.2298665E-01   -8.2298665E-01
 2.7800    8.3960378E-03    8.1540588E-01   -8.1540588E-01
 2.7900    8.2586721E-03    8.0784584E-01   -8.0784584E-01
 2.8000    8.1232585E-03    8.0030623E-01   -8.0030623E-01
 2.8100    7.9898170E-03    7.9279214E-01   -7.9279214E-01
 2.8200    7.8584091E-03    7.8531287E-01   -7.8531287E-01
 2.8300    7.7291005E-03    7.7787836E-01   -7.7787836E-01
 2.8400    7.6019179E-03    7.7049481E-01   -7.7049481E-01
 2.8500    7.4768160E-03    7.6316119E-01   -7.6316119E-01
 2.8600    7.3536648E-03    7.5586766E-01   -7.5586766E-01
 2.8700    7.2322701E-03    7.4859737E-01   -7.4859737E-01
 2.8800    7.1124327E-03    7.4133245E-01   -7.4133245E-01
 2.8900    6.9940327E-03    7.3406278E-01   -7.3406278E-01
 2.9000    6.8770918E-03    7.2679291E-01   -7.2679291E-01
 2.9100    6.7617592E-03    7.1954099E-01   -7.1954099E-01
 2.9200    6.6482087E-03    7.1232832E-01   -7.1232832E-01
 2.9300    6.5365078E-03    7.0516523E-01   -7.0516523E-01
 2.9400    6.4265529E-03    6.9804370E-01   -6.9804370E-01
 2.9500    6.3181257E-03    6.9094290E-01   -6.9094290E-01
 2.9600    6.2110373E-03    6.8384460E-01   -6.8384460E-01
 2.9700    6.1052538E-03    6.7674722E-01   -6.7674722E-01
 2.9800    6.0009100E-03    6.6966794E-01   -6.6966794E-01
 2.9900    5.8982030E-03    6.6263131E-01   -6.6263131E-01
 3.0000    5.7972529E-03    6.5565386E-01   -6.5565386E-01
 3.0100    5.6980425E-03    6.4873680E-01   -6.4873680E-01
 3.0200    5.6004641E-03    6.4187102E-01   -6.4187102E-01
 3.0300    5.5044193E-03    6.3504811E-01   -6.3504811E-01
 3.0400    5.4098780E-03    6.2826737E-01   -6.2826737E-01
 3.0500    5.3168616E-03    6.2153402E-01   -6.2153402E-01
 3.0600    5.2253809E-03    6.1485211E-01   -6.1485211E-01
 3.0700    5.1353958E-03    6.0821977E-01   -6.0821977E-01
 3.0800    5.0468334E-03    6.0163109E-01   -6.0163109E-01
 3.0900    4.9596417E-03    5.9508243E-01   -5.9508243E-01
 3.1000    4.8738259E-03    5.8857697E-01   -5.8857697E-01
 3.1100    4.7894341E-03    5.8212312E-01   -5.8212312E-01
 3.1200    4.7065015E-03    5.7572787E-01   -5.7572787E-01
 3.1300    4.6250014E-03    5.6939076E-01   -5.6939076E-01
 3.1400    4.5448401E-03    5.6310291E-01   -5.6310291E-01
 3.1500    4.4658971E-03    5.5685187E-01   -5.5685187E-01
 3.1600    4.3880809E-03    5.5062846E-01   -5.5062846E-01
 3.1700    4.3113664E-03    5.4443160E-01   -5.4443160E-01
 3.1800    4.2357995E-03    5.3826916E-01   -5.3826916E-01
 3.1900    4.1614690E-03    5.3215469E-01   -5.3215469E-01
 3.2000    4.0884599E-03    5.2610153E-01   -5.2610153E-01
 3.2100    4.0168058E-03    5.2011666E-01   -5.2011666E-01
 3.2200    3.9464681E-03    5.1419779E-01   -5.1419779E-01
 3.2300    3.8773527E-03    5.0833524E-01   -5.0833524E-01
 3.2400    3.8093555E-03    5.0251772E-01   -5.0251772E-01
 3.2500    3.7424110E-03    4.9673878E-01   -4.9673878E-01
 3.2600    3.6765187E-03    4.9100040E-01   -4.9100040E-01
 3.2700    3.6117282E-03    4.8531133E-01   -4.8531133E-01
 3.2800    3.5480834E-03    4.7967974E-01   -4.7967974E-01
 3.2900    3.4855552E-03    4.7410401E-01   -4.7410401E-01
 3.3000    3.4240162E-03    4.6856900E-01   -4.6856900E-01
 3.3100    3.3632929E-03    4.6305283E-01   -4.6305283E-01
 3.3200    3.3032690E-03    4.5754095E-01   -4.5754095E-01
 3.3300    3.2439641E-03    4.5203740E-01   -4.5203740E-01
 3.3400    3.1855224E-03    4.4656374E-01   -4.4656374E-01
 3.3500    3.1281171E-03    4.4114614E-01   -4.4114614E-01
 3.3600    3.0718442E-03    4.3580038E-01   -4.3580038E-01
