# total charge: 11.000000 
# r(A)     rho (e/A^3)     4*pi*r^2*rho(e/A)  dip  
 0.0000    7.6711025E-01    0.0000000E+00    8.7767302E+01
 0.0100    7.6813012E-01    9.6526078E-04    8.7328595E+01
 0.0200    7.6941845E-01    3.8675190E-03    8.6025525E+01
 0.0300    7.7102910E-01    8.7201337E-03    8.3896599E+01
 0.0400    7.7301927E-01    1.5542475E-02    8.1003888E+01
 0.0500    7.7545162E-01    2.4361531E-02    7.7430010E+01
 0.0600    7.7839554E-01    3.5213785E-02    7.3274199E+01
 0.0700    7.8192136E-01    4.8146977E-02    6.8647718E+01
 0.0800    7.8608644E-01    6.3220823E-02    6.3668921E+01
 0.0900    7.9092101E-01    8.0505953E-02    5.8458249E+01
 0.1000    7.9642386E-01    1.0008157E-01    5.3133478E+01
 0.1100    8.0256999E-01    1.2203324E-01    4.7805446E+01
 0.1200    8.0932377E-01    1.4645178E-01    4.2574480E+01
 0.1300    8.1664980E-01    1.7343328E-01    3.7527657E+01
 0.1400    8.2451785E-01    2.0307946E-01    3.2736963E+01
 0.1500    8.3290268E-01    2.3549769E-01    2.8258373E+01
 0.1600    8.4178120E-01    2.7080024E-01    2.4131783E+01
 0.1700    8.5112954E-01    3.0910311E-01    2.0381694E+01
 0.1800    8.6092203E-01    3.5052475E-01    1.7018510E+01
 0.1900    8.7113215E-01    3.9518560E-01    1.4040294E+01
 0.2000    8.8173441E-01    4.4320806E-01    1.1434805E+01
 0.2100    8.9270528E-01    4.9471669E-01    9.1816744E+00
 0.2200    9.0402260E-01    5.4983770E-01    7.2545727E+00
 0.2300    9.1566423E-01    6.0869787E-01    5.6232504E+00
 0.2400    9.2760665E-01    6.7142298E-01    4.2553737E+00
 0.2500    9.3982351E-01    7.3813565E-01    3.1180905E+00
 0.2600    9.5228420E-01    8.0895272E-01    2.1793005E+00
 0.2700    9.6495337E-01    8.8398261E-01    1.4086230E+00
 0.2800    9.7779250E-01    9.6332455E-01    7.7807480E-01
 0.2900    9.9076323E-01    1.0470701E+00    2.6248707E-01
 0.3000    1.0038307E+00    1.1353058E+00   -1.6029911E-01
 0.3100    1.0169647E+00    1.2281152E+00   -5.0941503E-01
 0.3200    1.0301382E+00    1.3255781E+00   -8.0107869E-01
 0.3300    1.0433244E+00    1.4277662E+00   -1.0488010E+00
 0.3400    1.0564930E+00    1.5347382E+00   -1.2636500E+00
 0.3500    1.0696089E+00    1.6465350E+00   -1.4545448E+00
 0.3600    1.0826333E+00    1.7631784E+00   -1.6285599E+00
 0.3700    1.0955261E+00    1.8846731E+00   -1.7912214E+00
 0.3800    1.1082494E+00    2.0110115E+00   -1.9467832E+00
 0.3900    1.1207694E+00    2.1421770E+00   -2.0984728E+00
 0.4000    1.1330557E+00    2.2781437E+00   -2.2487011E+00
 0.4100    1.1450781E+00    2.4188708E+00   -2.3992332E+00
 0.4200    1.1568019E+00    2.5642918E+00   -2.5513243E+00
 0.4300    1.1681868E+00    2.7143075E+00   -2.7058298E+00
 0.4400    1.1791893E+00    2.8687899E+00   -2.8633026E+00
 0.4500    1.1897714E+00    3.0275995E+00   -3.0240831E+00
 0.4600    1.1999070E+00    3.1906057E+00   -3.1883747E+00
 0.4700    1.2095817E+00    3.3576915E+00   -3.3562901E+00
 0.4800    1.2187835E+00    3.5287338E+00   -3.5278624E+00
 0.4900    1.2274922E+00    3.7035719E+00   -3.7030353E+00
 0.5000    1.2356758E+00    3.8819900E+00   -3.8816629E+00
 0.5100    1.2432972E+00    4.0637332E+00   -4.0635358E+00
 0.5200    1.2503270E+00    4.2485444E+00   -4.2484264E+00
 0.5300    1.2567487E+00    4.4361892E+00   -4.4361194E+00
 0.5400    1.2625537E+00    4.6264432E+00   -4.6264023E+00
 0.5500    1.2677271E+00    4.8190455E+00   -4.8190218E+00
 0.5600    1.2722388E+00    5.0136563E+00   -5.0136427E+00
 0.5700    1.2760459E+00    5.2098577E+00   -5.2098500E+00
 0.5800    1.2791070E+00    5.4072035E+00   -5.4071992E+00
 0.5900    1.2813978E+00    5.6052872E+00   -5.6052848E+00
 0.6000    1.2829169E+00    5.8037793E+00   -5.8037779E+00
 0.6100    1.2836778E+00    6.0024085E+00   -6.0024078E+00
 0.6200    1.2836943E+00    6.2009021E+00   -6.2009017E+00
 0.6300    1.2829691E+00    6.3989272E+00   -6.3989270E+00
 0.6400    1.2814913E+00    6.5960731E+00   -6.5960730E+00
 0.6500    1.2792438E+00    6.7918782E+00   -6.7918781E+00
 0.6600    1.2762133E+00    6.9858781E+00   -6.9858781E+00
 0.6700    1.2723955E+00    7.1776386E+00   -7.1776386E+00
 0.6800    1.2677938E+00    7.3667567E+00   -7.3667567E+00
 0.6900    1.2624151E+00    7.5528392E+00   -7.5528392E+00
 0.7000    1.2562651E+00    7.7354793E+00   -7.7354793E+00
 0.7100    1.2493462E+00    7.9142426E+00   -7.9142426E+00
 0.7200    1.2416588E+00    8.0886704E+00   -8.0886704E+00
 0.7300    1.2332042E+00    8.2582984E+00   -8.2582984E+00
 0.7400    1.2239875E+00    8.4226800E+00   -8.4226800E+00
 0.7500    1.2140196E+00    8.5813990E+00   -8.5813990E+00
 0.7600    1.2033151E+00    8.7340648E+00   -8.7340648E+00
 0.7700    1.1918901E+00    8.8802976E+00   -8.8802976E+00
 0.7800    1.1797610E+00    9.0197214E+00   -9.0197214E+00
 0.7900    1.1669451E+00    9.1519676E+00   -9.1519676E+00
 0.8000    1.1534610E+00    9.2766834E+00   -9.2766834E+00
 0.8100    1.1393290E+00    9.3935353E+00   -9.3935353E+00
 0.8200    1.1245711E+00    9.5022074E+00   -9.5022074E+00
 0.8300    1.1092103E+00    9.6024033E+00   -9.6024033E+00
 0.8400    1.0932717E+00    9.6938559E+00   -9.6938559E+00
 0.8500    1.0767842E+00    9.7763419E+00   -9.7763419E+00
 0.8600    1.0597798E+00    9.8496864E+00   -9.8496864E+00
 0.8700    1.0422925E+00    9.9137502E+00   -9.9137502E+00
 0.8800    1.0243550E+00    9.9684056E+00   -9.9684056E+00
 0.8900    1.0059978E+00    1.0013523E+01   -1.0013523E+01
 0.9000    9.8724985E-01    1.0048979E+01   -1.0048979E+01
 0.9100    9.6814041E-01    1.0074674E+01   -1.0074674E+01
 0.9200    9.4869962E-01    1.0090536E+01   -1.0090536E+01
 0.9300    9.2895695E-01    1.0096512E+01   -1.0096512E+01
 0.9400    9.0894004E-01    1.0092548E+01   -1.0092548E+01
 0.9500    8.8867569E-01    1.0078604E+01   -1.0078604E+01
 0.9600    8.6819288E-01    1.0054687E+01   -1.0054687E+01
 0.9700    8.4752516E-01    1.0020882E+01   -1.0020882E+01
 0.9800    8.2671124E-01    9.9773650E+00   -9.9773650E+00
 0.9900    8.0579520E-01    9.9244153E+00   -9.9244153E+00
 1.0000    7.8482657E-01    9.8624215E+00   -9.8624215E+00
 1.0100    7.6385794E-01    9.7918603E+00   -9.7918603E+00
 1.0200    7.4293809E-01    9.7132112E+00   -9.7132112E+00
 1.0300    7.2210393E-01    9.6268460E+00   -9.6268460E+00
 1.0400    7.0137783E-01    9.5329777E+00   -9.5329777E+00
 1.0500    6.8077347E-01    9.4317241E+00   -9.4317241E+00
 1.0600    6.6030652E-01    9.3232467E+00   -9.3232467E+00
 1.0700    6.4000254E-01    9.2078687E+00   -9.2078687E+00
 1.0800    6.1989769E-01    9.0860975E+00   -9.0860975E+00
 1.0900    6.0003291E-01    8.9585543E+00   -8.9585543E+00
 1.1000    5.8044707E-01    8.8258767E+00   -8.8258767E+00
 1.1100    5.6117400E-01    8.6886712E+00   -8.6886712E+00
 1.1200    5.4224433E-01    8.5475359E+00   -8.5475359E+00
 1.1300    5.2368855E-01    8.4031058E+00   -8.4031058E+00
 1.1400    5.0553713E-01    8.2560559E+00   -8.2560559E+00
 1.1500    4.8781744E-01    8.1070502E+00   -8.1070502E+00
 1.1600    4.7055099E-01    7.9566918E+00   -7.9566918E+00
 1.1700    4.5375394E-01    7.8055228E+00   -7.8055228E+00
 1.1800    4.3743964E-01    7.6540626E+00   -7.6540626E+00
 1.1900    4.2161981E-01    7.5028246E+00   -7.5028246E+00
 1.2000    4.0630302E-01    7.3522863E+00   -7.3522863E+00
 1.2100    3.9149237E-01    7.2028422E+00   -7.2028422E+00
 1.2200    3.7718492E-01    7.0547860E+00   -7.0547860E+00
 1.2300    3.6337323E-01    6.9083292E+00   -6.9083292E+00
 1.2400    3.5004732E-01    6.7636323E+00   -6.7636323E+00
 1.2500    3.3719588E-01    6.6208256E+00   -6.6208256E+00
 1.2600    3.2480708E-01    6.4800213E+00   -6.4800213E+00
 1.2700    3.1286937E-01    6.3413300E+00   -6.3413300E+00
 1.2800    3.0137275E-01    6.2048856E+00   -6.2048856E+00
 1.2900    2.9030933E-01    6.0708608E+00   -6.0708608E+00
 1.3000    2.7967242E-01    5.9394498E+00   -5.9394498E+00
 1.3100    2.6945363E-01    5.8108076E+00   -5.8108076E+00
 1.3200    2.5963961E-01    5.6849764E+00   -5.6849764E+00
 1.3300    2.5021138E-01    5.5618619E+00   -5.5618619E+00
 1.3400    2.4114800E-01    5.4413057E+00   -5.4413057E+00
 1.3500    2.3243255E-01    5.3232192E+00   -5.3232192E+00
 1.3600    2.2405586E-01    5.2076765E+00   -5.2076765E+00
 1.3700    2.1601493E-01    5.0948895E+00   -5.0948895E+00
 1.3800    2.0830720E-01    4.9850822E+00   -4.9850822E+00
 1.3900    2.0092507E-01    4.8783571E+00   -4.8783571E+00
 1.4000    1.9385442E-01    4.7746512E+00   -4.7746512E+00
 1.4100    1.8707802E-01    4.6738078E+00   -4.6738078E+00
 1.4200    1.8058102E-01    4.5757117E+00   -4.5757117E+00
 1.4300    1.7435446E-01    4.4803817E+00   -4.4803817E+00
 1.4400    1.6839411E-01    4.3879507E+00   -4.3879507E+00
 1.4500    1.6269586E-01    4.2985540E+00   -4.2985540E+00
 1.4600    1.5725179E-01    4.2122212E+00   -4.2122212E+00
 1.4700    1.5204947E-01    4.1288531E+00   -4.1288531E+00
 1.4800    1.4707480E-01    4.0482895E+00   -4.0482895E+00
 1.4900    1.4231546E-01    3.9704019E+00   -3.9704019E+00
 1.5000    1.3776235E-01    3.8951387E+00   -3.8951387E+00
 1.5100    1.3340818E-01    3.8224886E+00   -3.8224886E+00
 1.5200    1.2924444E-01    3.7523980E+00   -3.7523980E+00
 1.5300    1.2525947E-01    3.6847099E+00   -3.6847099E+00
 1.5400    1.2143915E-01    3.6191786E+00   -3.6191786E+00
 1.5500    1.1776987E-01    3.5555553E+00   -3.5555553E+00
 1.5600    1.1424171E-01    3.4936850E+00   -3.4936850E+00
 1.5700    1.1084942E-01    3.4335438E+00   -3.4335438E+00
 1.5800    1.0759062E-01    3.3751916E+00   -3.3751916E+00
 1.5900    1.0446261E-01    3.3186770E+00   -3.3186770E+00
 1.6000    1.0146034E-01    3.2639699E+00   -3.2639699E+00
 1.6100    9.8576658E-02    3.2109660E+00   -3.2109660E+00
 1.6200    9.5804186E-02    3.1595438E+00   -3.1595438E+00
 1.6300    9.3136985E-02    3.1096195E+00   -3.1096195E+00
 1.6400    9.0571082E-02    3.0611676E+00   -3.0611676E+00
 1.6500    8.8103907E-02    3.0142059E+00   -3.0142059E+00
 1.6600    8.5733079E-02    2.9687557E+00   -2.9687557E+00
 1.6700    8.3455078E-02    2.9247959E+00   -2.9247959E+00
 1.6800    8.1264650E-02    2.8822397E+00   -2.8822397E+00
 1.6900    7.9155632E-02    2.8409598E+00   -2.8409598E+00
 1.7000    7.7122806E-02    2.8008544E+00   -2.8008544E+00
 1.7100    7.5163370E-02    2.7619024E+00   -2.7619024E+00
 1.7200    7.3276693E-02    2.7241600E+00   -2.7241600E+00
 1.7300    7.1462370E-02    2.6876919E+00   -2.6876919E+00
 1.7400    6.9717953E-02    2.6524853E+00   -2.6524853E+00
 1.7500    6.8038044E-02    2.6184108E+00   -2.6184108E+00
 1.7600    6.6415535E-02    2.5852639E+00   -2.5852639E+00
 1.7700    6.4844284E-02    2.5528665E+00   -2.5528665E+00
 1.7800    6.3321392E-02    2.5211595E+00   -2.5211595E+00
 1.7900    6.1847295E-02    2.4902138E+00   -2.4902138E+00
 1.8000    6.0423355E-02    2.4601394E+00   -2.4601394E+00
 1.8100    5.9048699E-02    2.4309574E+00   -2.4309574E+00
 1.8200    5.7718964E-02    2.4025430E+00   -2.4025430E+00
 1.8300    5.6428327E-02    2.3747026E+00   -2.3747026E+00
 1.8400    5.5173400E-02    2.3473360E+00   -2.3473360E+00
 1.8500    5.3955613E-02    2.3205448E+00   -2.3205448E+00
 1.8600    5.2779673E-02    2.2945760E+00   -2.2945760E+00
 1.8700    5.1649051E-02    2.2696319E+00   -2.2696319E+00
 1.8800    5.0562281E-02    2.2457025E+00   -2.2457025E+00
 1.8900    4.9513118E-02    2.2225613E+00   -2.2225613E+00
 1.9000    4.8494080E-02    2.1999144E+00   -2.1999144E+00
 1.9100    4.7500089E-02    2.1775645E+00   -2.1775645E+00
 1.9200    4.6529462E-02    2.1554619E+00   -2.1554619E+00
 1.9300    4.5582276E-02    2.1336368E+00   -2.1336368E+00
 1.9400    4.4658091E-02    2.1120951E+00   -2.1120951E+00
 1.9500    4.3754859E-02    2.0907657E+00   -2.0907657E+00
 1.9600    4.2869394E-02    2.0695187E+00   -2.0695187E+00
 1.9700    4.1998809E-02    2.0482327E+00   -2.0482327E+00
 1.9800    4.1142081E-02    2.0268728E+00   -2.0268728E+00
 1.9900    4.0300934E-02    2.0055391E+00   -2.0055391E+00
 2.0000    3.9479401E-02    1.9844512E+00   -1.9844512E+00
 2.0100    3.8682101E-02    1.9638668E+00   -1.9638668E+00
 2.0200    3.7912084E-02    1.9439731E+00   -1.9439731E+00
 2.0300    3.7169507E-02    1.9248139E+00   -1.9248139E+00
 2.0400    3.6451793E-02    1.9062906E+00   -1.9062906E+00
 2.0500    3.5755035E-02    1.8882295E+00   -1.8882295E+00
 2.0600    3.5075757E-02    1.8704726E+00   -1.8704726E+00
 2.0700    3.4412093E-02    1.8529412E+00   -1.8529412E+00
 2.0800    3.3763761E-02    1.8356393E+00   -1.8356393E+00
 2.0900    3.3130968E-02    1.8185974E+00   -1.8185974E+00
 2.1000    3.2513154E-02    1.8018040E+00   -1.8018040E+00
 2.1100    3.1908519E-02    1.7851776E+00   -1.7851776E+00
 2.1200    3.1314581E-02    1.7685942E+00   -1.7685942E+00
 2.1300    3.0729160E-02    1.7519421E+00   -1.7519421E+00
 2.1400    3.0151121E-02    1.7351654E+00   -1.7351654E+00
 2.1500    2.9580656E-02    1.7182826E+00   -1.7182826E+00
 2.1600    2.9019288E-02    1.7013910E+00   -1.7013910E+00
 2.1700    2.8469670E-02    1.6846581E+00   -1.6846581E+00
 2.1800    2.7934968E-02    1.6682880E+00   -1.6682880E+00
 2.1900    2.7417707E-02    1.6524534E+00   -1.6524534E+00
 2.2000    2.6918519E-02    1.6372175E+00   -1.6372175E+00
 2.2100    2.6435608E-02    1.6224963E+00   -1.6224963E+00
 2.2200    2.5965389E-02    1.6080911E+00   -1.6080911E+00
 2.2300    2.5503921E-02    1.5937733E+00   -1.5937733E+00
 2.2400    2.5048251E-02    1.5793679E+00   -1.5793679E+00
 2.2500    2.4596977E-02    1.5647921E+00   -1.5647921E+00
 2.2600    2.4149978E-02    1.5500421E+00   -1.5500421E+00
 2.2700    2.3707722E-02    1.5351521E+00   -1.5351521E+00
 2.2800    2.3270761E-02    1.5201629E+00   -1.5201629E+00
 2.2900    2.2839654E-02    1.5051173E+00   -1.5051173E+00
 2.3000    2.2415116E-02    1.4900695E+00   -1.4900695E+00
 2.3100    2.1998057E-02    1.4750888E+00   -1.4750888E+00
 2.3200    2.1589430E-02    1.4602493E+00   -1.4602493E+00
 2.3300    2.1190031E-02    1.4456172E+00   -1.4456172E+00
 2.3400    2.0800328E-02    1.4312377E+00   -1.4312377E+00
 2.3500    2.0420232E-02    1.4171188E+00   -1.4171188E+00
 2.3600    2.0048868E-02    1.4032134E+00   -1.4032134E+00
 2.3700    1.9684604E-02    1.3894190E+00   -1.3894190E+00
 2.3800    1.9325564E-02    1.3756120E+00   -1.3756120E+00
 2.3900    1.8970443E-02    1.3617053E+00   -1.3617053E+00
 2.4000    1.8619090E-02    1.3476925E+00   -1.3476925E+00
 2.4100    1.8272424E-02    1.3336446E+00   -1.3336446E+00
 2.4200    1.7931769E-02    1.3196651E+00   -1.3196651E+00
 2.4300    1.7598107E-02    1.3058352E+00   -1.3058352E+00
 2.4400    1.7271711E-02    1.2921856E+00   -1.2921856E+00
 2.4500    1.6952224E-02    1.2787002E+00   -1.2787002E+00
 2.4600    1.6638950E-02    1.2653364E+00   -1.2653364E+00
 2.4700    1.6331108E-02    1.2520435E+00   -1.2520435E+00
 2.4800    1.6027998E-02    1.2387752E+00   -1.2387752E+00
 2.4900    1.5729166E-02    1.2255027E+00   -1.2255027E+00
 2.5000    1.5434579E-02    1.2122290E+00   -1.2122290E+00
 2.5100    1.5144668E-02    1.1989941E+00   -1.1989941E+00
 2.5200    1.4860144E-02    1.1858615E+00   -1.1858615E+00
 2.5300    1.4581616E-02    1.1728881E+00   -1.1728881E+00
 2.5400    1.4309236E-02    1.1600955E+00   -1.1600955E+00
 2.5500    1.4042567E-02    1.1474578E+00   -1.1474578E+00
 2.5600    1.3780788E-02    1.1349163E+00   -1.1349163E+00
 2.5700    1.3523128E-02    1.1224145E+00   -1.1224145E+00
 2.5800    1.3269285E-02    1.1099331E+00   -1.1099331E+00
 2.5900    1.3019523E-02    1.0974999E+00   -1.0974999E+00
 2.6000    1.2774377E-02    1.0851662E+00   -1.0851662E+00
 2.6100    1.2534197E-02    1.0729695E+00   -1.0729695E+00
 2.6200    1.2298931E-02    1.0609131E+00   -1.0609131E+00
 2.6300    1.2068319E-02    1.0489823E+00   -1.0489823E+00
 2.6400    1.1842301E-02    1.0371792E+00   -1.0371792E+00
 2.6500    1.1621188E-02    1.0255389E+00   -1.0255389E+00
 2.6600    1.1405346E-02    1.0141019E+00   -1.0141019E+00
 2.6700    1.1194650E-02    1.0028660E+00   -1.0028660E+00
 2.6800    1.0988213E-02    9.9175985E-01   -9.9175985E-01
 2.6900    1.0784702E-02    9.8066927E-01   -9.8066927E-01
 2.7000    1.0582992E-02    9.6949561E-01   -9.6949561E-01
 2.7100    1.0382679E-02    9.5820376E-01   -9.5820376E-01
 2.7200    1.0184116E-02    9.4682782E-01   -9.4682782E-01
 2.7300    9.9880251E-03    9.3543752E-01   -9.3543752E-01
 2.7400    9.7950206E-03    9.2409441E-01   -9.2409441E-01
 2.7500    9.6053721E-03    9.1282903E-01   -9.1282903E-01
 2.7600    9.4190982E-03    9.0164868E-01   -9.0164868E-01
 2.7700    9.2362035E-03    8.9055940E-01   -8.9055940E-01
 2.7800    9.0567925E-03    8.7957702E-01   -8.7957702E-01
 2.7900    8.8809729E-03    8.6871799E-01   -8.6871799E-01
 2.8000    8.7086776E-03    8.5798193E-01   -8.5798193E-01
 2.8100    8.5395856E-03    8.4734310E-01   -8.4734310E-01
 2.8200    8.3732047E-03    8.3675783E-01   -8.3675783E-01
 2.8300    8.2090566E-03    8.2618249E-01   -8.2618249E-01
 2.8400    8.0468663E-03    8.1559270E-01   -8.1559270E-01
 2.8500    7.8866873E-03    8.0499690E-01   -8.0499690E-01
 2.8600    7.7289273E-03    7.9444010E-01   -7.9444010E-01
 2.8700    7.5742419E-03    7.8399416E-01   -7.8399416E-01
 2.8800    7.4232884E-03    7.7373309E-01   -7.7373309E-01
 2.8900    7.2764054E-03    7.6369938E-01   -7.6369938E-01
 2.9000    7.1333923E-03    7.5387956E-01   -7.5387956E-01
 2.9100    6.9935759E-03    7.4420937E-01   -7.4420937E-01
 2.9200    6.8561901E-03    7.3461268E-01   -7.3461268E-01
 2.9300    6.7208397E-03    7.2505114E-01   -7.2505114E-01
 2.9400    6.5877193E-03    7.1554938E-01   -7.1554938E-01
 2.9500    6.4574184E-03    7.0617579E-01   -7.0617579E-01
 2.9600    6.3304466E-03    6.9699175E-01   -6.9699175E-01
 2.9700    6.2068256E-03    6.8800613E-01   -6.8800613E-01
 2.9800    6.0860445E-03    6.7916847E-01   -6.7916847E-01
 2.9900    5.9673897E-03    6.7040407E-01   -6.7040407E-01
 3.0000    5.8503721E-03    6.6166149E-01   -6.6166149E-01
 3.0100    5.7349243E-03    6.5293590E-01   -6.5293590E-01
 3.0200    5.6212714E-03    6.4425575E-01   -6.4425575E-01
 3.0300    5.5096479E-03    6.3565134E-01   -6.3565134E-01
 3.0400    5.4001168E-03    6.2713377E-01   -6.2713377E-01
 3.0500    5.2925963E-03    6.1869743E-01   -6.1869743E-01
 3.0600    5.1870060E-03    6.1033667E-01   -6.1033667E-01
 3.0700    5.0833649E-03    6.0205740E-01   -6.0205740E-01
 3.0800    4.9817545E-03    5.9387306E-01   -5.9387306E-01
 3.0900    4.8822034E-03    5.8579100E-01   -5.8579100E-01
 3.1000    4.7846147E-03    5.7780358E-01   -5.7780358E-01
 3.1100    4.6888086E-03    5.6989277E-01   -5.6989277E-01
 3.1200    4.5946425E-03    5.6204460E-01   -5.6204460E-01
 3.1300    4.5021081E-03    5.5426117E-01   -5.5426117E-01
 3.1400    4.4113294E-03    5.4656101E-01   -5.4656101E-01
 3.1500    4.3224713E-03    5.3896814E-01   -5.3896814E-01
 3.1600    4.2356296E-03    5.3149846E-01   -5.3149846E-01
 3.1700    4.1507701E-03    5.2415178E-01   -5.2415178E-01
 3.1800    4.0677351E-03    5.1691218E-01   -5.1691218E-01
 3.1900    3.9863032E-03    5.0975508E-01   -5.0975508E-01
 3.2000    3.9062716E-03    5.0265760E-01   -5.0265760E-01
 3.2100    3.8275277E-03    4.9560796E-01   -4.9560796E-01
 3.2200    3.7500757E-03    4.8860921E-01   -4.8860921E-01
 3.2300    3.6740028E-03    4.8167532E-01   -4.8167532E-01
 3.2400    3.5994073E-03    4.7482205E-01   -4.7482205E-01
 3.2500    3.5263310E-03    4.6805798E-01   -4.6805798E-01
 3.2600    3.4547315E-03    4.6138064E-01   -4.6138064E-01
 3.2700    3.3845085E-03    4.5477960E-01   -4.5477960E-01
 3.2800    3.3155686E-03    4.4824512E-01   -4.4824512E-01
 3.2900    3.2478950E-03    4.4177755E-01   -4.4177755E-01
 3.3000    3.1815681E-03    4.3539051E-01   -4.3539051E-01
 3.3100    3.1167116E-03    4.2910391E-01   -4.2910391E-01
 3.3200    3.0533944E-03    4.2293043E-01   -4.2293043E-01
 3.3300    2.9915594E-03    4.1686551E-01   -4.1686551E-01
 3.3400    2.9310366E-03    4.1088855E-01   -4.1088855E-01
 3.3500    2.8716325E-03    4.0497512E-01   -4.0497512E-01
 3.3600    2.8132275E-03    3.9911061E-01   -3.9911061E-01
