# total charge: 12.000000 
# r(A)     rho (e/A^3)     4*pi*r^2*rho(e/A)  dip  
 0.0000    4.5738880E-01    0.0000000E+00    9.5746147E+01
 0.0100    4.6018769E-01    5.7828891E-04    9.5268033E+01
 0.0200    4.6372170E-01    2.3309195E-03    9.3847916E+01
 0.0300    4.6813648E-01    5.2944989E-03    9.1527781E+01
 0.0400    4.7358484E-01    9.5219882E-03    8.8375312E+01
 0.0500    4.8023202E-01    1.5086934E-02    8.4480591E+01
 0.0600    4.8825887E-01    2.2088311E-02    7.9951816E+01
 0.0700    4.9784628E-01    3.0654992E-02    7.4910289E+01
 0.0800    5.0913751E-01    4.0947268E-02    6.9485025E+01
 0.0900    5.2219976E-01    5.3153462E-02    6.3807307E+01
 0.1000    5.3701244E-01    6.7482973E-02    5.8005491E+01
 0.1100    5.5348785E-01    8.4159534E-02    5.2200363E+01
 0.1200    5.7150700E-01    1.0341747E-01    4.6501236E+01
 0.1300    5.9094934E-01    1.2550089E-01    4.1002961E+01
 0.1400    6.1170708E-01    1.5066398E-01    3.5783928E+01
 0.1500    6.3368675E-01    1.7917071E-01    3.0905052E+01
 0.1600    6.5680449E-01    2.1129340E-01    2.6409707E+01
 0.1700    6.8098020E-01    2.4731029E-01    2.2324468E+01
 0.1800    7.0613358E-01    2.8750258E-01    1.8660535E+01
 0.1900    7.3218238E-01    3.3215159E-01    1.5415644E+01
 0.2000    7.5904221E-01    3.8153623E-01    1.2576296E+01
 0.2100    7.8662746E-01    4.3593080E-01    1.0120132E+01
 0.2200    8.1485320E-01    4.9560377E-01    8.0182985E+00
 0.2300    8.4363766E-01    5.6081742E-01    6.2376716E+00
 0.2400    8.7290259E-01    6.3182693E-01    4.7428603E+00
 0.2500    9.0256822E-01    7.0887542E-01    3.4979167E+00
 0.2600    9.3254429E-01    7.9218393E-01    2.4677287E+00
 0.2700    9.6272407E-01    8.8194037E-01    1.6190840E+00
 0.2800    9.9298886E-01    9.7829606E-01    9.2141232E-01
 0.2900    1.0232225E+00    1.0813740E+00    3.4723375E-01
 0.3000    1.0533274E+00    1.1912852E+00   -1.2764157E-01
 0.3100    1.0832325E+00    1.3081421E+00   -5.2410555E-01
 0.3200    1.1128901E+00    1.4320629E+00   -8.5988173E-01
 0.3300    1.1422630E+00    1.5631616E+00   -1.1497450E+00
 0.3400    1.1713065E+00    1.7015247E+00   -1.4057921E+00
 0.3500    1.1999501E+00    1.8471797E+00   -1.6377359E+00
 0.3600    1.2280912E+00    2.0000713E+00   -1.8532149E+00
 0.3700    1.2556108E+00    2.1600727E+00   -2.0581254E+00
 0.3800    1.2824073E+00    2.3270357E+00   -2.2569684E+00
 0.3900    1.3084253E+00    2.5008521E+00   -2.4531748E+00
 0.4000    1.3336540E+00    2.6814706E+00   -2.6493513E+00
 0.4100    1.3580907E+00    2.8688402E+00   -2.8474174E+00
 0.4200    1.3816940E+00    3.0628117E+00   -3.0486654E+00
 0.4300    1.4043653E+00    3.2630735E+00   -3.2538251E+00
 0.4400    1.4259742E+00    3.4691803E+00   -3.4631942E+00
 0.4500    1.4464060E+00    3.6806550E+00   -3.6768189E+00
 0.4600    1.4655940E+00    3.8970791E+00   -3.8946453E+00
 0.4700    1.4835151E+00    4.1181063E+00   -4.1165775E+00
 0.4800    1.5001633E+00    4.3434104E+00   -4.3424597E+00
 0.4900    1.5155300E+00    4.5726353E+00   -4.5720500E+00
 0.5000    1.5296063E+00    4.8053998E+00   -4.8050430E+00
 0.5100    1.5424006E+00    5.0413562E+00   -5.0411409E+00
 0.5200    1.5539555E+00    5.2802577E+00   -5.2801291E+00
 0.5300    1.5643395E+00    5.5219518E+00   -5.5218757E+00
 0.5400    1.5735968E+00    5.7662151E+00   -5.7661705E+00
 0.5500    1.5816665E+00    6.0124318E+00   -6.0124060E+00
 0.5600    1.5883294E+00    6.2593103E+00   -6.2592955E+00
 0.5700    1.5932522E+00    6.5049519E+00   -6.5049435E+00
 0.5800    1.5961468E+00    6.7474345E+00   -6.7474297E+00
 0.5900    1.5969588E+00    6.9856623E+00   -6.9856597E+00
 0.6000    1.5959497E+00    7.2199062E+00   -7.2199047E+00
 0.6100    1.5935927E+00    7.4515542E+00   -7.4515534E+00
 0.6200    1.5903310E+00    7.6821145E+00   -7.6821140E+00
 0.6300    1.5863482E+00    7.9120582E+00   -7.9120580E+00
 0.6400    1.5814951E+00    8.1402486E+00   -8.1402485E+00
 0.6500    1.5754135E+00    8.3643298E+00   -8.3643298E+00
 0.6600    1.5677728E+00    8.5818490E+00   -8.5818490E+00
 0.6700    1.5584858E+00    8.7914868E+00   -8.7914867E+00
 0.6800    1.5477928E+00    8.9937438E+00   -8.9937438E+00
 0.6900    1.5361686E+00    9.1906646E+00   -9.1906646E+00
 0.7000    1.5240856E+00    9.3845901E+00   -9.3845901E+00
 0.7100    1.5117599E+00    9.5765570E+00   -9.5765570E+00
 0.7200    1.4990497E+00    9.7654193E+00   -9.7654193E+00
 0.7300    1.4855821E+00    9.9483770E+00   -9.9483770E+00
 0.7400    1.4709939E+00    1.0122416E+01   -1.0122416E+01
 0.7500    1.4550809E+00    1.0285360E+01   -1.0285360E+01
 0.7600    1.4377662E+00    1.0435790E+01   -1.0435790E+01
 0.7700    1.4189934E+00    1.0572354E+01   -1.0572354E+01
 0.7800    1.3987107E+00    1.0693675E+01   -1.0693675E+01
 0.7900    1.3769933E+00    1.0799306E+01   -1.0799306E+01
 0.8000    1.3541858E+00    1.0891009E+01   -1.0891009E+01
 0.8100    1.3309045E+00    1.0973036E+01   -1.0973036E+01
 0.8200    1.3078356E+00    1.1050724E+01   -1.1050724E+01
 0.8300    1.2854265E+00    1.1127902E+01   -1.1127902E+01
 0.8400    1.2636448E+00    1.1204525E+01   -1.1204525E+01
 0.8500    1.2419508E+00    1.1275923E+01   -1.1275923E+01
 0.8600    1.2195222E+00    1.1334346E+01   -1.1334346E+01
 0.8700    1.1956373E+00    1.1372288E+01   -1.1372288E+01
 0.8800    1.1700119E+00    1.1385851E+01   -1.1385851E+01
 0.8900    1.1428875E+00    1.1376099E+01   -1.1376099E+01
 0.9000    1.1148314E+00    1.1347602E+01   -1.1347602E+01
 0.9100    1.0864189E+00    1.1305505E+01   -1.1305505E+01
 0.9200    1.0580396E+00    1.1253496E+01   -1.1253496E+01
 0.9300    1.0299263E+00    1.1193912E+01   -1.1193912E+01
 0.9400    1.0022878E+00    1.1129048E+01   -1.1129048E+01
 0.9500    9.7536462E-01    1.1061756E+01   -1.1061756E+01
 0.9600    9.4935294E-01    1.0994615E+01   -1.0994615E+01
 0.9700    9.2429903E-01    1.0928633E+01   -1.0928633E+01
 0.9800    9.0005773E-01    1.0862565E+01   -1.0862565E+01
 0.9900    8.7630269E-01    1.0792807E+01   -1.0792807E+01
 1.0000    8.5255994E-01    1.0713584E+01   -1.0713584E+01
 1.0100    8.2831569E-01    1.0618141E+01   -1.0618141E+01
 1.0200    8.0323868E-01    1.0501584E+01   -1.0501584E+01
 1.0300    7.7740827E-01    1.0364145E+01   -1.0364145E+01
 1.0400    7.5134979E-01    1.0212186E+01   -1.0212186E+01
 1.0500    7.2580135E-01    1.0055559E+01   -1.0055559E+01
 1.0600    7.0135767E-01    9.9028715E+00   -9.9028715E+00
 1.0700    6.7823118E-01    9.7578733E+00   -9.7578733E+00
 1.0800    6.5626439E-01    9.6191393E+00   -9.6191393E+00
 1.0900    6.3513584E-01    9.4826447E+00   -9.4826447E+00
 1.1000    6.1458049E-01    9.3448859E+00   -9.3448859E+00
 1.1100    5.9447176E-01    9.2042212E+00   -9.2042212E+00
 1.1200    5.7475254E-01    9.0599711E+00   -9.0599711E+00
 1.1300    5.5533589E-01    8.9109190E+00   -8.9109190E+00
 1.1400    5.3610011E-01    8.7551877E+00   -8.7551877E+00
 1.1500    5.1697788E-01    8.5916684E+00   -8.5916684E+00
 1.1600    4.9802492E-01    8.4212568E+00   -8.4212568E+00
 1.1700    4.7938192E-01    8.2463779E+00   -8.2463779E+00
 1.1800    4.6117171E-01    8.0693125E+00   -8.0693125E+00
 1.1900    4.4344072E-01    7.8911329E+00   -7.8911329E+00
 1.2000    4.2618892E-01    7.7121330E+00   -7.7121330E+00
 1.2100    4.0943213E-01    7.5329056E+00   -7.5329056E+00
 1.2200    3.9322444E-01    7.3547859E+00   -7.3547859E+00
 1.2300    3.7763309E-01    7.1794327E+00   -7.1794327E+00
 1.2400    3.6270960E-01    7.0082935E+00   -7.0082935E+00
 1.2500    3.4848691E-01    6.8425245E+00   -6.8425245E+00
 1.2600    3.3498782E-01    6.6831309E+00   -6.6831309E+00
 1.2700    3.2221521E-01    6.5307542E+00   -6.5307542E+00
 1.2800    3.1012123E-01    6.3850058E+00   -6.3850058E+00
 1.2900    2.9858704E-01    6.2439619E+00   -6.2439619E+00
 1.3000    2.8745215E-01    6.1046691E+00   -6.1046691E+00
 1.3100    2.7660100E-01    5.9649417E+00   -5.9649417E+00
 1.3200    2.6605778E-01    5.8255066E+00   -5.8255066E+00
 1.3300    2.5600398E-01    5.6906236E+00   -5.6906236E+00
 1.3400    2.4667368E-01    5.5659881E+00   -5.5659881E+00
 1.3500    2.3818657E-01    5.4549990E+00   -5.4549990E+00
 1.3600    2.3044908E-01    5.3562723E+00   -5.3562723E+00
 1.3700    2.2320603E-01    5.2644975E+00   -5.2644975E+00
 1.3800    2.1620188E-01    5.1740129E+00   -5.1740129E+00
 1.3900    2.0932850E-01    5.0823880E+00   -5.0823880E+00
 1.4000    2.0265704E-01    4.9914605E+00   -4.9914605E+00
 1.4100    1.9634085E-01    4.9052230E+00   -4.9052230E+00
 1.4200    1.9046738E-01    4.8262206E+00   -4.8262206E+00
 1.4300    1.8497062E-01    4.7531848E+00   -4.7531848E+00
 1.4400    1.7966414E-01    4.6816209E+00   -4.6816209E+00
 1.4500    1.7435879E-01    4.6066977E+00   -4.6066977E+00
 1.4600    1.6896842E-01    4.5260685E+00   -4.5260685E+00
 1.4700    1.6352929E-01    4.4405839E+00   -4.4405839E+00
 1.4800    1.5813371E-01    4.3526901E+00   -4.3526901E+00
 1.4900    1.5284030E-01    4.2640303E+00   -4.2640303E+00
 1.5000    1.4763187E-01    4.1741929E+00   -4.1741929E+00
 1.5100    1.4245019E-01    4.0815657E+00   -4.0815657E+00
 1.5200    1.3727669E-01    3.9856011E+00   -3.9856011E+00
 1.5300    1.3219313E-01    3.8886747E+00   -3.8886747E+00
 1.5400    1.2737096E-01    3.7959609E+00   -3.7959609E+00
 1.5500    1.2299086E-01    3.7131809E+00   -3.7131809E+00
 1.5600    1.1914604E-01    3.6436669E+00   -3.6436669E+00
 1.5700    1.1579687E-01    3.5867904E+00   -3.5867904E+00
 1.5800    1.1280878E-01    3.5388889E+00   -3.5388889E+00
 1.5900    1.1004105E-01    3.4958988E+00   -3.4958988E+00
 1.6000    1.0741631E-01    3.4555728E+00   -3.4555728E+00
 1.6100    1.0492532E-01    3.4177628E+00   -3.4177628E+00
 1.6200    1.0258378E-01    3.3831292E+00   -3.3831292E+00
 1.6300    1.0038904E-01    3.3517481E+00   -3.3517481E+00
 1.6400    9.8305444E-02    3.3225776E+00   -3.3225776E+00
 1.6500    9.6276071E-02    3.2937915E+00   -3.2937915E+00
 1.6600    9.4249654E-02    3.2636667E+00   -3.2636667E+00
 1.6700    9.2210753E-02    3.2316504E+00   -3.2316504E+00
 1.6800    9.0193338E-02    3.1989164E+00   -3.1989164E+00
 1.6900    8.8259015E-02    3.1676876E+00   -3.1676876E+00
 1.7000    8.6446850E-02    3.1394739E+00   -3.1394739E+00
 1.7100    8.4731789E-02    3.1134970E+00   -3.1134970E+00
 1.7200    8.3028866E-02    3.0867103E+00   -3.0867103E+00
 1.7300    8.1245735E-02    3.0556432E+00   -3.0556432E+00
 1.7400    7.9346854E-02    3.0188259E+00   -3.0188259E+00
 1.7500    7.7381886E-02    2.9780039E+00   -2.9780039E+00
 1.7600    7.5455655E-02    2.9371559E+00   -2.9371559E+00
 1.7700    7.3658450E-02    2.8998730E+00   -2.8998730E+00
 1.7800    7.2005515E-02    2.8669204E+00   -2.8669204E+00
 1.7900    7.0432090E-02    2.8358712E+00   -2.8358712E+00
 1.8000    6.8851727E-02    2.8033009E+00   -2.8033009E+00
 1.8100    6.7234235E-02    2.7679452E+00   -2.7679452E+00
 1.8200    6.5636619E-02    2.7321142E+00   -2.7321142E+00
 1.8300    6.4152722E-02    2.6997723E+00   -2.6997723E+00
 1.8400    6.2816749E-02    2.6725200E+00   -2.6725200E+00
 1.8500    6.1544761E-02    2.6469419E+00   -2.6469419E+00
 1.8600    6.0174786E-02    2.6160757E+00   -2.6160757E+00
 1.8700    5.8580342E-02    2.5742160E+00   -2.5742160E+00
 1.8800    5.6762248E-02    2.5210714E+00   -2.5210714E+00
 1.8900    5.4842434E-02    2.4617854E+00   -2.4617854E+00
 1.9000    5.2974107E-02    2.4031491E+00   -2.4031491E+00
 1.9100    5.1251840E-02    2.3495574E+00   -2.3495574E+00
 1.9200    4.9689037E-02    2.3018282E+00   -2.3018282E+00
 1.9300    4.8259141E-02    2.2589367E+00   -2.2589367E+00
 1.9400    4.6948459E-02    2.2204176E+00   -2.2204176E+00
 1.9500    4.5778153E-02    2.1874461E+00   -2.1874461E+00
 1.9600    4.4790866E-02    2.1622777E+00   -2.1622777E+00
 1.9700    4.4020210E-02    2.1468141E+00   -2.1468141E+00
 1.9800    4.3461094E-02    2.1411195E+00   -2.1411195E+00
 1.9900    4.3054023E-02    2.1425440E+00   -2.1425440E+00
 2.0000    4.2694059E-02    2.1460375E+00   -2.1460375E+00
 2.0100    4.2265501E-02    2.1457939E+00   -2.1457939E+00
 2.0200    4.1686023E-02    2.1374850E+00   -2.1374850E+00
 2.0300    4.0934904E-02    2.1198040E+00   -2.1198040E+00
 2.0400    4.0049918E-02    2.0944588E+00   -2.0944588E+00
 2.0500    3.9097537E-02    2.0647477E+00   -2.0647477E+00
 2.0600    3.8135765E-02    2.0336526E+00   -2.0336526E+00
 2.0700    3.7191414E-02    2.0025955E+00   -2.0025955E+00
 2.0800    3.6263947E-02    1.9715673E+00   -1.9715673E+00
 2.0900    3.5349604E-02    1.9403809E+00   -1.9403809E+00
 2.1000    3.4463931E-02    1.9099116E+00   -1.9099116E+00
 2.1100    3.3643365E-02    1.8822366E+00   -1.8822366E+00
 2.1200    3.2926921E-02    1.8596564E+00   -1.8596564E+00
 2.1300    3.2335886E-02    1.8435454E+00   -1.8435454E+00
 2.1400    3.1865997E-02    1.8338547E+00   -1.8338547E+00
 2.1500    3.1490517E-02    1.8292227E+00   -1.8292227E+00
 2.1600    3.1164384E-02    1.8271572E+00   -1.8271572E+00
 2.1700    3.0826596E-02    1.8241263E+00   -1.8241263E+00
 2.1800    3.0408506E-02    1.8160087E+00   -1.8160087E+00
 2.1900    2.9854316E-02    1.7993068E+00   -1.7993068E+00
 2.2000    2.9146191E-02    1.7727073E+00   -1.7727073E+00
 2.2100    2.8316014E-02    1.7379070E+00   -1.7379070E+00
 2.2200    2.7432739E-02    1.6989671E+00   -1.6989671E+00
 2.2300    2.6572496E-02    1.6605499E+00   -1.6605499E+00
 2.2400    2.5790211E-02    1.6261507E+00   -1.6261507E+00
 2.2500    2.5107897E-02    1.5972954E+00   -1.5972954E+00
 2.2600    2.4521585E-02    1.5738933E+00   -1.5738933E+00
 2.2700    2.4016691E-02    1.5551589E+00   -1.5551589E+00
 2.2800    2.3578578E-02    1.5402711E+00   -1.5402711E+00
 2.2900    2.3192968E-02    1.5284005E+00   -1.5284005E+00
 2.3000    2.2841696E-02    1.5184269E+00   -1.5184269E+00
 2.3100    2.2501811E-02    1.5088682E+00   -1.5088682E+00
 2.3200    2.2149519E-02    1.4981322E+00   -1.4981322E+00
 2.3300    2.1764910E-02    1.4848363E+00   -1.4848363E+00
 2.3400    2.1335462E-02    1.4680594E+00   -1.4680594E+00
 2.3500    2.0860015E-02    1.4476388E+00   -1.4476388E+00
 2.3600    2.0353077E-02    1.4245049E+00   -1.4245049E+00
 2.3700    1.9844297E-02    1.4006908E+00   -1.4006908E+00
 2.3800    1.9368444E-02    1.3786643E+00   -1.3786643E+00
 2.3900    1.8949234E-02    1.3601830E+00   -1.3601830E+00
 2.4000    1.8587707E-02    1.3454209E+00   -1.3454209E+00
 2.4100    1.8263729E-02    1.3330100E+00   -1.3330100E+00
 2.4200    1.7948999E-02    1.3209331E+00   -1.3209331E+00
 2.4300    1.7621679E-02    1.3075843E+00   -1.3075843E+00
 2.4400    1.7273717E-02    1.2923356E+00   -1.2923356E+00
 2.4500    1.6909469E-02    1.2754751E+00   -1.2754751E+00
 2.4600    1.6540294E-02    1.2578339E+00   -1.2578339E+00
 2.4700    1.6179773E-02    1.2404413E+00   -1.2404413E+00
 2.4800    1.5840269E-02    1.2242659E+00   -1.2242659E+00
 2.4900    1.5529280E-02    1.2099290E+00   -1.2099290E+00
 2.5000    1.5245757E-02    1.1973989E+00   -1.1973989E+00
 2.5100    1.4979176E-02    1.1858922E+00   -1.1858922E+00
 2.5200    1.4713602E-02    1.1741672E+00   -1.1741672E+00
 2.5300    1.4435353E-02    1.1611232E+00   -1.1611232E+00
 2.5400    1.4140001E-02    1.1463751E+00   -1.1463751E+00
 2.5500    1.3834570E-02    1.1304618E+00   -1.1304618E+00
 2.5600    1.3533323E-02    1.1145364E+00   -1.1145364E+00
 2.5700    1.3249117E-02    1.0996717E+00   -1.0996717E+00
 2.5800    1.2985503E-02    1.0861957E+00   -1.0861957E+00
 2.5900    1.2735064E-02    1.0735210E+00   -1.0735210E+00
 2.6000    1.2485365E-02    1.0606151E+00   -1.0606151E+00
 2.6100    1.2227809E-02    1.0467417E+00   -1.0467417E+00
 2.6200    1.1961930E-02    1.0318432E+00   -1.0318432E+00
 2.6300    1.1691406E-02    1.0162208E+00   -1.0162208E+00
 2.6400    1.1415948E-02    9.9983818E-01   -9.9983818E-01
 2.6500    1.1127850E-02    9.8200316E-01   -9.8200316E-01
 2.6600    1.0818107E-02    9.6188775E-01   -9.6188775E-01
 2.6700    1.0487392E-02    9.3950674E-01   -9.3950674E-01
 2.6800    1.0151522E-02    9.1624285E-01   -9.1624285E-01
 2.6900    9.8355737E-03    8.9436361E-01   -8.9436361E-01
 2.7000    9.5608719E-03    8.7586040E-01   -8.7586040E-01
 2.7100    9.3345635E-03    8.6147457E-01   -8.6147457E-01
 2.7200    9.1484991E-03    8.5054544E-01   -8.5054544E-01
 2.7300    8.9866611E-03    8.4165387E-01   -8.4165387E-01
 2.7400    8.8347905E-03    8.3350315E-01   -8.3350315E-01
 2.7500    8.6855288E-03    8.2541340E-01   -8.2541340E-01
 2.7600    8.5369387E-03    8.1720345E-01   -8.1720345E-01
 2.7700    8.3878520E-03    8.0876093E-01   -8.0876093E-01
 2.7800    8.2352834E-03    7.9979374E-01   -7.9979374E-01
 2.7900    8.0759647E-03    7.8997379E-01   -7.8997379E-01
 2.8000    7.9097622E-03    7.7927250E-01   -7.7927250E-01
 2.8100    7.7415836E-03    7.6816110E-01   -7.6816110E-01
 2.8200    7.5803982E-03    7.5753046E-01   -7.5753046E-01
 2.8300    7.4361710E-03    7.4839711E-01   -7.4839711E-01
 2.8400    7.3160448E-03    7.4152006E-01   -7.4152006E-01
 2.8500    7.2207350E-03    7.3702291E-01   -7.3702291E-01
 2.8600    7.1422495E-03    7.3413672E-01   -7.3413672E-01
 2.8700    7.0646965E-03    7.3125217E-01   -7.3125217E-01
 2.8800    6.9695812E-03    7.2644297E-01   -7.2644297E-01
 2.8900    6.8444247E-03    7.1836059E-01   -7.1836059E-01
 2.9000    6.6899973E-03    7.0702017E-01   -7.0702017E-01
 2.9100    6.5205841E-03    6.9387676E-01   -6.9387676E-01
 2.9200    6.3557600E-03    6.8099364E-01   -6.8099364E-01
 2.9300    6.2085869E-03    6.6978878E-01   -6.6978878E-01
 2.9400    6.0783161E-03    6.6021867E-01   -6.6021867E-01
 2.9500    5.9526431E-03    6.5097415E-01   -6.5097415E-01
 2.9600    5.8176348E-03    6.4053039E-01   -6.4053039E-01
 2.9700    5.6678685E-03    6.2826451E-01   -6.2826451E-01
 2.9800    5.5093962E-03    6.1481775E-01   -6.1481775E-01
 2.9900    5.3540889E-03    6.0150303E-01   -6.0150303E-01
 3.0000    5.2108631E-03    5.8933474E-01   -5.8933474E-01
 3.0100    5.0810644E-03    5.7849226E-01   -5.7849226E-01
 3.0200    4.9606225E-03    5.6853856E-01   -5.6853856E-01
 3.0300    4.8454838E-03    5.5902633E-01   -5.5902633E-01
 3.0400    4.7349236E-03    5.4988264E-01   -5.4988264E-01
 3.0500    4.6304707E-03    5.4129583E-01   -5.4129583E-01
 3.0600    4.5325683E-03    5.3333130E-01   -5.3333130E-01
 3.0700    4.4387366E-03    5.2570970E-01   -5.2570970E-01
 3.0800    4.3450166E-03    5.1796777E-01   -5.1796777E-01
 3.0900    4.2492306E-03    5.0984378E-01   -5.0984378E-01
 3.1000    4.1530417E-03    5.0153303E-01   -5.0153303E-01
 3.1100    4.0609624E-03    4.9358234E-01   -4.9358234E-01
 3.1200    3.9770578E-03    4.8649788E-01   -4.8649788E-01
 3.1300    3.9019082E-03    4.8036968E-01   -4.8036968E-01
 3.1400    3.8320600E-03    4.7478989E-01   -4.7478989E-01
 3.1500    3.7621209E-03    4.6909815E-01   -4.6909815E-01
 3.1600    3.6877849E-03    4.6275339E-01   -4.6275339E-01
 3.1700    3.6078764E-03    4.5559614E-01   -4.5559614E-01
 3.1800    3.5245992E-03    4.4789255E-01   -4.4789255E-01
 3.1900    3.4422305E-03    4.4018089E-01   -4.4018089E-01
 3.2000    3.3649827E-03    4.3300474E-01   -4.3300474E-01
 3.2100    3.2950054E-03    4.2665424E-01   -4.2665424E-01
 3.2200    3.2315355E-03    4.2104696E-01   -4.2104696E-01
 3.2300    3.1716425E-03    4.1581402E-01   -4.1581402E-01
 3.2400    3.1120573E-03    4.1053243E-01   -4.1053243E-01
 3.2500    3.0509838E-03    4.0496406E-01   -4.0496406E-01
 3.2600    2.9889382E-03    3.9917378E-01   -3.9917378E-01
 3.2700    2.9281801E-03    3.9346233E-01   -3.9346233E-01
 3.2800    2.8709150E-03    3.8813060E-01   -3.8813060E-01
 3.2900    2.8172357E-03    3.8319942E-01   -3.8319942E-01
 3.3000    2.7643168E-03    3.7829061E-01   -3.7829061E-01
 3.3100    2.7078189E-03    3.7280821E-01   -3.7280821E-01
 3.3200    2.6447713E-03    3.6633141E-01   -3.6633141E-01
 3.3300    2.5758020E-03    3.5893086E-01   -3.5893086E-01
 3.3400    2.5049283E-03    3.5115439E-01   -3.5115439E-01
 3.3500    2.4370490E-03    3.4368750E-01   -3.4368750E-01
 3.3600    2.3751036E-03    3.3695428E-01   -3.3695428E-01
