# total charge: 13.000000 
# r(A)     rho (e/A^3)     4*pi*r^2*rho(e/A)  dip  
 0.0000    1.8966032E+00    0.0000000E+00    1.0372499E+02
 0.0100    1.8982826E+00    2.3854522E-03    1.0320528E+02
 0.0200    1.9004032E+00    9.5524682E-03    1.0166155E+02
 0.0300    1.9030526E+00    2.1523017E-02    9.9139309E+01
 0.0400    1.9063224E+00    3.8328887E-02    9.5711908E+01
 0.0500    1.9103110E+00    6.0014191E-02    9.1476971E+01
 0.0600    1.9151233E+00    8.6638135E-02    8.6551759E+01
 0.0700    1.9208580E+00    1.1827725E-01    8.1067745E+01
 0.0800    1.9275815E+00    1.5502531E-01    7.5164778E+01
 0.0900    1.9353027E+00    1.9698982E-01    6.8985175E+01
 0.1000    1.9439713E+00    2.4428663E-01    6.2668102E+01
 0.1100    1.9535055E+00    2.9703654E-01    5.6344529E+01
 0.1200    1.9638332E+00    3.5536689E-01    5.0133007E+01
 0.1300    1.9749198E+00    4.1941701E-01    4.4136417E+01
 0.1400    1.9867616E+00    4.8934110E-01    3.8439800E+01
 0.1500    1.9993446E+00    5.6530136E-01    3.3109274E+01
 0.1600    2.0125924E+00    6.4744914E-01    2.8191968E+01
 0.1700    2.0263428E+00    7.3590310E-01    2.3716857E+01
 0.1800    2.0403787E+00    8.3074102E-01    1.9696300E+01
 0.1900    2.0545050E+00    9.3201795E-01    1.6128094E+01
 0.2000    2.0686238E+00    1.0398037E+00    1.2997848E+01
 0.2100    2.0827453E+00    1.1542094E+00    1.0281526E+01
 0.2200    2.0969123E+00    1.2753679E+00    7.9480262E+00
 0.2300    2.1110859E+00    1.4033676E+00    5.9616623E+00
 0.2400    2.1250956E+00    1.5381929E+00    4.2843849E+00
 0.2500    2.1387229E+00    1.6797490E+00    2.8776091E+00
 0.2600    2.1518751E+00    1.8279892E+00    1.7035828E+00
 0.2700    2.1647049E+00    1.9830611E+00    7.2638193E-01
 0.2800    2.1775583E+00    2.1453379E+00   -8.7320506E-02
 0.2900    2.1907677E+00    2.3152729E+00   -7.6761447E-01
 0.3000    2.2044310E+00    2.4931528E+00   -1.3408722E+00
 0.3100    2.2183035E+00    2.6788859E+00   -1.8295129E+00
 0.3200    2.2318400E+00    2.8719236E+00   -2.2520606E+00
 0.3300    2.2443562E+00    3.0713515E+00   -2.6234836E+00
 0.3400    2.2552558E+00    3.2761480E+00   -2.9557710E+00
 0.3500    2.2642481E+00    3.4855391E+00   -3.2586416E+00
 0.3600    2.2714420E+00    3.6992742E+00   -3.5401797E+00
 0.3700    2.2772393E+00    3.9176171E+00   -3.8071742E+00
 0.3800    2.2820615E+00    4.1409921E+00   -4.0650859E+00
 0.3900    2.2860724E+00    4.3694729E+00   -4.3178225E+00
 0.4000    2.2890945E+00    4.6024976E+00   -4.5677017E+00
 0.4100    2.2908274E+00    4.8391596E+00   -4.8159516E+00
 0.4200    2.2912539E+00    5.0790402E+00   -5.0637150E+00
 0.4300    2.2909000E+00    5.3229564E+00   -5.3129372E+00
 0.4400    2.2906243E+00    5.5727438E+00   -5.5662587E+00
 0.4500    2.2909626E+00    5.8297897E+00   -5.8256339E+00
 0.4600    2.2915158E+00    6.0932415E+00   -6.0906049E+00
 0.4700    2.2909691E+00    6.3595269E+00   -6.3578708E+00
 0.4800    2.2878684E+00    6.6240466E+00   -6.6230166E+00
 0.4900    2.2815894E+00    6.8839787E+00   -6.8833446E+00
 0.5000    2.2726688E+00    7.1397995E+00   -7.1394130E+00
 0.5100    2.2621583E+00    7.3938937E+00   -7.3936604E+00
 0.5200    2.2505304E+00    7.6471820E+00   -7.6470426E+00
 0.5300    2.2371195E+00    7.8967934E+00   -7.8967110E+00
 0.5400    2.2206716E+00    8.1373262E+00   -8.1372779E+00
 0.5500    2.2006195E+00    8.3652744E+00   -8.3652464E+00
 0.5600    2.1780229E+00    8.5831827E+00   -8.5831666E+00
 0.5700    2.1553207E+00    8.7997730E+00   -8.7997639E+00
 0.5800    2.1349736E+00    9.0252319E+00   -9.0252267E+00
 0.5900    2.1179725E+00    9.2647605E+00   -9.2647576E+00
 0.6000    2.1032908E+00    9.5150634E+00   -9.5150618E+00
 0.6100    2.0886294E+00    9.7663191E+00   -9.7663183E+00
 0.6200    2.0718579E+00    1.0008136E+01   -1.0008136E+01
 0.6300    2.0521479E+00    1.0235277E+01   -1.0235277E+01
 0.6400    2.0301177E+00    1.0449392E+01   -1.0449392E+01
 0.6500    2.0070544E+00    1.0656037E+01   -1.0656037E+01
 0.6600    1.9838622E+00    1.0859485E+01   -1.0859485E+01
 0.6700    1.9604345E+00    1.1058897E+01   -1.1058897E+01
 0.6800    1.9357293E+00    1.1247923E+01   -1.1247923E+01
 0.6900    1.9083752E+00    1.1417521E+01   -1.1417521E+01
 0.7000    1.8774475E+00    1.1560423E+01   -1.1560423E+01
 0.7100    1.8430312E+00    1.1675064E+01   -1.1675064E+01
 0.7200    1.8062368E+00    1.1766561E+01   -1.1766561E+01
 0.7300    1.7686140E+00    1.1843734E+01   -1.1843734E+01
 0.7400    1.7313801E+00    1.1914223E+01   -1.1914223E+01
 0.7500    1.6950571E+00    1.1981653E+01   -1.1981653E+01
 0.7600    1.6597101E+00    1.2046733E+01   -1.2046733E+01
 0.7700    1.6253934E+00    1.2110158E+01   -1.2110158E+01
 0.7800    1.5923000E+00    1.2173738E+01   -1.2173738E+01
 0.7900    1.5605031E+00    1.2238514E+01   -1.2238514E+01
 0.8000    1.5296116E+00    1.2301866E+01   -1.2301866E+01
 0.8100    1.4987100E+00    1.2356558E+01   -1.2356558E+01
 0.8200    1.4666894E+00    1.2392979E+01   -1.2392979E+01
 0.8300    1.4327655E+00    1.2403412E+01   -1.2403412E+01
 0.8400    1.3968767E+00    1.2385870E+01   -1.2385870E+01
 0.8500    1.3597401E+00    1.2345356E+01   -1.2345356E+01
 0.8600    1.3225305E+00    1.2291715E+01   -1.2291715E+01
 0.8700    1.2863420E+00    1.2235023E+01   -1.2235023E+01
 0.8800    1.2517297E+00    1.2181079E+01   -1.2181079E+01
 0.8900    1.2185940E+00    1.2129668E+01   -1.2129668E+01
 0.9000    1.1864281E+00    1.2076367E+01   -1.2076367E+01
 0.9100    1.1546965E+00    1.2016016E+01   -1.2016016E+01
 0.9200    1.1230687E+00    1.1945156E+01   -1.1945156E+01
 0.9300    1.0914232E+00    1.1862301E+01   -1.1862301E+01
 0.9400    1.0597419E+00    1.1766998E+01   -1.1766998E+01
 0.9500    1.0280510E+00    1.1659280E+01   -1.1659280E+01
 0.9600    9.9643846E-01    1.1539920E+01   -1.1539920E+01
 0.9700    9.6506080E-01    1.1410588E+01   -1.1410588E+01
 0.9800    9.3406826E-01    1.1273029E+01   -1.1273029E+01
 0.9900    9.0349952E-01    1.1127771E+01   -1.1127771E+01
 1.0000    8.7326008E-01    1.0973710E+01   -1.0973710E+01
 1.0100    8.4323008E-01    1.0809328E+01   -1.0809328E+01
 1.0200    8.1342269E-01    1.0634731E+01   -1.0634731E+01
 1.0300    7.8406376E-01    1.0452874E+01   -1.0452874E+01
 1.0400    7.5552501E-01    1.0268935E+01   -1.0268935E+01
 1.0500    7.2815316E-01    1.0088142E+01   -1.0088142E+01
 1.0600    7.0210838E-01    9.9134712E+00   -9.9134712E+00
 1.0700    6.7731379E-01    9.7446745E+00   -9.7446745E+00
 1.0800    6.5353727E-01    9.5791668E+00   -9.5791668E+00
 1.0900    6.3053794E-01    9.4139976E+00   -9.4139976E+00
 1.1000    6.0817410E-01    9.2474748E+00   -9.2474748E+00
 1.1100    5.8641009E-01    9.0794023E+00   -9.0794023E+00
 1.1200    5.6524340E-01    8.9100760E+00   -8.9100760E+00
 1.1300    5.4463373E-01    8.7391921E+00   -8.7391921E+00
 1.1400    5.2450091E-01    8.5657582E+00   -8.5657582E+00
 1.1500    5.0478201E-01    8.3889849E+00   -8.3889849E+00
 1.1600    4.8547855E-01    8.2091064E+00   -8.2091064E+00
 1.1700    4.6664477E-01    8.0272723E+00   -8.0272723E+00
 1.1800    4.4833947E-01    7.8447815E+00   -7.8447815E+00
 1.1900    4.3059757E-01    7.6625860E+00   -7.6625860E+00
 1.2000    4.1344113E-01    7.4814545E+00   -7.4814545E+00
 1.2100    3.9689834E-01    7.3023036E+00   -7.3023036E+00
 1.2200    3.8099884E-01    7.1261208E+00   -7.1261208E+00
 1.2300    3.6575366E-01    6.9535850E+00   -6.9535850E+00
 1.2400    3.5114963E-01    6.7849312E+00   -6.7849312E+00
 1.2500    3.3716743E-01    6.6202670E+00   -6.6202670E+00
 1.2600    3.2380111E-01    6.4599519E+00   -6.4599519E+00
 1.2700    3.1105378E-01    6.3045310E+00   -6.3045310E+00
 1.2800    2.9891006E-01    6.1541819E+00   -6.1541819E+00
 1.2900    2.8731142E-01    6.0081694E+00   -6.0081694E+00
 1.3000    2.7616513E-01    5.8649648E+00   -5.8649648E+00
 1.3100    2.6539612E-01    5.7233068E+00   -5.7233068E+00
 1.3200    2.5501214E-01    5.5836551E+00   -5.5836551E+00
 1.3300    2.4512380E-01    5.4487718E+00   -5.4487718E+00
 1.3400    2.3588238E-01    5.3224914E+00   -5.3224914E+00
 1.3500    2.2736859E-01    5.2072434E+00   -5.2072434E+00
 1.3600    2.1951894E-01    5.1022258E+00   -5.1022258E+00
 1.3700    2.1215156E-01    5.0037687E+00   -5.0037687E+00
 1.3800    2.0507188E-01    4.9076563E+00   -4.9076563E+00
 1.3900    1.9817924E-01    4.8116898E+00   -4.8116898E+00
 1.4000    1.9150148E-01    4.7166980E+00   -4.7166980E+00
 1.4100    1.8513829E-01    4.6253471E+00   -4.6253471E+00
 1.4200    1.7915735E-01    4.5396377E+00   -4.5396377E+00
 1.4300    1.7352064E-01    4.4589548E+00   -4.4589548E+00
 1.4400    1.6809439E-01    4.3801407E+00   -4.3801407E+00
 1.4500    1.6273045E-01    4.2994678E+00   -4.2994678E+00
 1.4600    1.5735182E-01    4.2149007E+00   -4.2149007E+00
 1.4700    1.5197830E-01    4.1269207E+00   -4.1269207E+00
 1.4800    1.4668014E-01    4.0374262E+00   -4.0374262E+00
 1.4900    1.4150328E-01    3.9477432E+00   -3.9477432E+00
 1.5000    1.3642845E-01    3.8574234E+00   -3.8574234E+00
 1.5100    1.3139677E-01    3.7648568E+00   -3.7648568E+00
 1.5200    1.2638165E-01    3.6692818E+00   -3.6692818E+00
 1.5300    1.2144991E-01    3.5726455E+00   -3.5726455E+00
 1.5400    1.1676164E-01    3.4797777E+00   -3.4797777E+00
 1.5500    1.1250078E-01    3.3964778E+00   -3.3964778E+00
 1.5600    1.0877856E-01    3.3266136E+00   -3.3266136E+00
 1.5700    1.0557610E-01    3.2702034E+00   -3.2702034E+00
 1.5800    1.0276779E-01    3.2238963E+00   -3.2238963E+00
 1.5900    1.0020488E-01    3.1834129E+00   -3.1834129E+00
 1.6000    9.7790726E-02    3.1459187E+00   -3.1459187E+00
 1.6100    9.5496082E-02    3.1106215E+00   -3.1106215E+00
 1.6200    9.3323411E-02    3.0777299E+00   -3.0777299E+00
 1.6300    9.1266301E-02    3.0471619E+00   -3.0471619E+00
 1.6400    8.9294162E-02    3.0180097E+00   -3.0180097E+00
 1.6500    8.7361697E-02    2.9888135E+00   -2.9888135E+00
 1.6600    8.5431888E-02    2.9583261E+00   -2.9583261E+00
 1.6700    8.3500810E-02    2.9263987E+00   -2.9263987E+00
 1.6800    8.1606721E-02    2.8943720E+00   -2.8943720E+00
 1.6900    7.9807760E-02    2.8643652E+00   -2.8643652E+00
 1.7000    7.8135735E-02    2.8376407E+00   -2.8376407E+00
 1.7100    7.6559839E-02    2.8132161E+00   -2.8132161E+00
 1.7200    7.4993537E-02    2.7879860E+00   -2.7879860E+00
 1.7300    7.3346168E-02    2.7585414E+00   -2.7585414E+00
 1.7400    7.1584824E-02    2.7235122E+00   -2.7235122E+00
 1.7500    6.9761400E-02    2.6847333E+00   -2.6847333E+00
 1.7600    6.7982566E-02    2.6462615E+00   -2.6462615E+00
 1.7700    6.6340367E-02    2.6117660E+00   -2.6117660E+00
 1.7800    6.4851469E-02    2.5820799E+00   -2.5820799E+00
 1.7900    6.3451580E-02    2.5548086E+00   -2.5548086E+00
 1.8000    6.2053960E-02    2.5265295E+00   -2.5265295E+00
 1.8100    6.0628769E-02    2.4960068E+00   -2.4960068E+00
 1.8200    5.9234517E-02    2.4656276E+00   -2.4656276E+00
 1.8300    5.7964327E-02    2.4393428E+00   -2.4393428E+00
 1.8400    5.6843587E-02    2.4183936E+00   -2.4183936E+00
 1.8500    5.5769968E-02    2.3985773E+00   -2.3985773E+00
 1.8600    5.4561531E-02    2.3720416E+00   -2.3720416E+00
 1.8700    5.3082977E-02    2.3326434E+00   -2.3326434E+00
 1.8800    5.1343417E-02    2.2803963E+00   -2.2803963E+00
 1.8900    4.9483569E-02    2.2212349E+00   -2.2212349E+00
 1.9000    4.7673415E-02    2.1626853E+00   -2.1626853E+00
 1.9100    4.6015504E-02    2.1095061E+00   -2.1095061E+00
 1.9200    4.4525294E-02    2.0626195E+00   -2.0626195E+00
 1.9300    4.3178344E-02    2.0211124E+00   -2.0211124E+00
 1.9400    4.1964126E-02    1.9846846E+00   -1.9846846E+00
 1.9500    4.0903504E-02    1.9545176E+00   -1.9545176E+00
 1.9600    4.0031849E-02    1.9325363E+00   -1.9325363E+00
 1.9700    3.9371267E-02    1.9200906E+00   -1.9200906E+00
 1.9800    3.8908087E-02    1.9168147E+00   -1.9168147E+00
 1.9900    3.8582205E-02    1.9200081E+00   -1.9200081E+00
 2.0000    3.8294867E-02    1.9249100E+00   -1.9249100E+00
 2.0100    3.7937891E-02    1.9260837E+00   -1.9260837E+00
 2.0200    3.7433112E-02    1.9194135E+00   -1.9194135E+00
 2.0300    3.6759574E-02    1.9035856E+00   -1.9035856E+00
 2.0400    3.5952069E-02    1.8801569E+00   -1.8801569E+00
 2.0500    3.5073377E-02    1.8522311E+00   -1.8522311E+00
 2.0600    3.4178768E-02    1.8226392E+00   -1.8226392E+00
 2.0700    3.3295026E-02    1.7927921E+00   -1.7927921E+00
 2.0800    3.2425934E-02    1.7629055E+00   -1.7629055E+00
 2.0900    3.1576200E-02    1.7332543E+00   -1.7332543E+00
 2.1000    3.0770585E-02    1.7052349E+00   -1.7052349E+00
 2.1100    3.0050279E-02    1.6812151E+00   -1.6812151E+00
 2.1200    2.9451246E-02    1.6633562E+00   -1.6633562E+00
 2.1300    2.8985252E-02    1.6525178E+00   -1.6525178E+00
 2.1400    2.8637082E-02    1.6480340E+00   -1.6480340E+00
 2.1500    2.8372587E-02    1.6481082E+00   -1.6481082E+00
 2.1600    2.8144659E-02    1.6501118E+00   -1.6501118E+00
 2.1700    2.7894114E-02    1.6506002E+00   -1.6506002E+00
 2.1800    2.7555238E-02    1.6456104E+00   -1.6456104E+00
 2.1900    2.7074389E-02    1.6317618E+00   -1.6317618E+00
 2.2000    2.6434774E-02    1.6077956E+00   -1.6077956E+00
 2.2100    2.5668895E-02    1.5754390E+00   -1.5754390E+00
 2.2200    2.4846577E-02    1.5388007E+00   -1.5388007E+00
 2.2300    2.4045066E-02    1.5026075E+00   -1.5026075E+00
 2.2400    2.3320138E-02    1.4704052E+00   -1.4704052E+00
 2.2500    2.2694148E-02    1.4437393E+00   -1.4437393E+00
 2.2600    2.2163499E-02    1.4225419E+00   -1.4225419E+00
 2.2700    2.1714788E-02    1.4061031E+00   -1.4061031E+00
 2.2800    2.1335300E-02    1.3937289E+00   -1.3937289E+00
 2.2900    2.1012216E-02    1.3846904E+00   -1.3846904E+00
 2.3000    2.0727010E-02    1.3778508E+00   -1.3778508E+00
 2.3100    2.0454295E-02    1.3715711E+00   -1.3715711E+00
 2.3200    2.0166804E-02    1.3640269E+00   -1.3640269E+00
 2.3300    1.9841663E-02    1.3536294E+00   -1.3536294E+00
 2.3400    1.9464989E-02    1.3393551E+00   -1.3393551E+00
 2.3500    1.9036176E-02    1.3210684E+00   -1.3210684E+00
 2.3600    1.8571787E-02    1.2998330E+00   -1.2998330E+00
 2.3700    1.8104177E-02    1.2778661E+00   -1.2778661E+00
 2.3800    1.7670454E-02    1.2577997E+00   -1.2577997E+00
 2.3900    1.7295537E-02    1.2414799E+00   -1.2414799E+00
 2.4000    1.6980324E-02    1.2290748E+00   -1.2290748E+00
 2.4100    1.6703622E-02    1.2191428E+00   -1.2191428E+00
 2.4200    1.6435849E-02    1.2095748E+00   -1.2095748E+00
 2.4300    1.6154201E-02    1.1986928E+00   -1.1986928E+00
 2.4400    1.5850136E-02    1.1858302E+00   -1.1858302E+00
 2.4500    1.5527933E-02    1.1712664E+00   -1.1712664E+00
 2.4600    1.5199252E-02    1.1558522E+00   -1.1558522E+00
 2.4700    1.4878300E-02    1.1406623E+00   -1.1406623E+00
 2.4800    1.4578169E-02    1.1267205E+00   -1.1267205E+00
 2.4900    1.4306742E-02    1.1146777E+00   -1.1146777E+00
 2.5000    1.4062625E-02    1.1044759E+00   -1.1044759E+00
 2.5100    1.3834313E-02    1.0952542E+00   -1.0952542E+00
 2.5200    1.3604909E-02    1.0856919E+00   -1.0856919E+00
 2.5300    1.3360514E-02    1.0746674E+00   -1.0746674E+00
 2.5400    1.3097476E-02    1.0618542E+00   -1.0618542E+00
 2.5500    1.2824183E-02    1.0479002E+00   -1.0479002E+00
 2.5600    1.2556093E-02    1.0340566E+00   -1.0340566E+00
 2.5700    1.2306444E-02    1.0214302E+00   -1.0214302E+00
 2.5800    1.2078165E-02    1.0102998E+00   -1.0102998E+00
 2.5900    1.1862574E-02    9.9997313E-01   -9.9997313E-01
 2.6000    1.1646070E-02    9.8931812E-01   -9.8931812E-01
 2.6100    1.1419624E-02    9.7755833E-01   -9.7755833E-01
 2.6200    1.1183034E-02    9.6465516E-01   -9.6465516E-01
 2.6300    1.0940170E-02    9.5092318E-01   -9.5092318E-01
 2.6400    1.0689977E-02    9.3625570E-01   -9.3625570E-01
 2.6500    1.0423010E-02    9.1980288E-01   -9.1980288E-01
 2.6600    1.0128739E-02    9.0059293E-01   -9.0059293E-01
 2.6700    9.8080687E-03    8.7864995E-01   -8.7864995E-01
 2.6800    9.4793900E-03    8.5557847E-01   -8.5557847E-01
 2.6900    9.1717392E-03    8.3400013E-01   -8.3400013E-01
 2.7000    8.9098841E-03    8.1622416E-01   -8.1622416E-01
 2.7100    8.7023536E-03    8.0312875E-01   -8.0312875E-01
 2.7200    8.5400132E-03    7.9397388E-01   -7.9397388E-01
 2.7300    8.4044333E-03    7.8712479E-01   -7.8712479E-01
 2.7400    8.2789395E-03    7.8106234E-01   -7.8106234E-01
 2.7500    8.1547185E-03    7.7496881E-01   -7.7496881E-01
 2.7600    8.0293742E-03    7.6861655E-01   -7.6861655E-01
 2.7700    7.9016845E-03    7.6188441E-01   -7.6188441E-01
 2.7800    7.7685011E-03    7.5446081E-01   -7.5446081E-01
 2.7900    7.6262725E-03    7.4598585E-01   -7.4598585E-01
 2.8000    7.4748193E-03    7.3642178E-01   -7.3642178E-01
 2.8100    7.3196113E-03    7.2629077E-01   -7.2629077E-01
 2.8200    7.1709749E-03    7.1661564E-01   -7.1661564E-01
 2.8300    7.0409902E-03    7.0862501E-01   -7.0862501E-01
 2.8400    6.9392530E-03    7.0333020E-01   -7.0333020E-01
 2.8500    6.8682326E-03    7.0104288E-01   -7.0104288E-01
 2.8600    6.8195260E-03    7.0096465E-01   -7.0096465E-01
 2.8700    6.7737222E-03    7.0113402E-01   -7.0113402E-01
 2.8800    6.7064939E-03    6.9902124E-01   -6.9902124E-01
 2.8900    6.5999589E-03    6.9270254E-01   -6.9270254E-01
 2.9000    6.4531042E-03    6.8198455E-01   -6.8198455E-01
 2.9100    6.2833649E-03    6.6863348E-01   -6.6863348E-01
 2.9200    6.1166676E-03    6.5537587E-01   -6.5537587E-01
 2.9300    5.9719273E-03    6.4425770E-01   -6.4425770E-01
 2.9400    5.8505939E-03    6.3548379E-01   -6.3548379E-01
 2.9500    5.7383188E-03    6.2753588E-01   -6.2753588E-01
 2.9600    5.6169817E-03    6.1843819E-01   -6.1843819E-01
 2.9700    5.4778635E-03    6.0720309E-01   -6.0720309E-01
 2.9800    5.3263541E-03    5.9439127E-01   -5.9439127E-01
 2.9900    5.1758209E-03    5.8147558E-01   -5.8147558E-01
 3.0000    5.0370864E-03    5.6968105E-01   -5.6968105E-01
 3.0100    4.9124918E-03    5.5929984E-01   -5.5929984E-01
 3.0200    4.7980074E-03    5.4990120E-01   -5.4990120E-01
 3.0300    4.6893973E-03    5.4101855E-01   -5.4101855E-01
 3.0400    4.5860378E-03    5.3259203E-01   -5.3259203E-01
 3.0500    4.4896581E-03    5.2483502E-01   -5.2483502E-01
 3.0600    4.4004816E-03    5.1778913E-01   -5.1778913E-01
 3.0700    4.3151880E-03    5.1107699E-01   -5.1107699E-01
 3.0800    4.2287831E-03    5.0411162E-01   -5.0411162E-01
 3.0900    4.1386284E-03    4.9657317E-01   -4.9657317E-01
 3.1000    4.0469987E-03    4.8872699E-01   -4.8872699E-01
 3.1100    3.9598705E-03    4.8129530E-01   -4.8129530E-01
 3.1200    3.8827495E-03    4.7496151E-01   -4.7496151E-01
 3.1300    3.8166967E-03    4.6987917E-01   -4.6987917E-01
 3.1400    3.7574562E-03    4.6554652E-01   -4.6554652E-01
 3.1500    3.6980588E-03    4.6111026E-01   -4.6111026E-01
 3.1600    3.6327770E-03    4.5585085E-01   -4.5585085E-01
 3.1700    3.5598788E-03    4.4953510E-01   -4.4953510E-01
 3.1800    3.4820071E-03    4.4248011E-01   -4.4248011E-01
 3.1900    3.4044781E-03    4.3535324E-01   -4.3535324E-01
 3.2000    3.3325178E-03    4.2882718E-01   -4.2882718E-01
 3.2100    3.2687398E-03    4.2325323E-01   -4.2325323E-01
 3.2200    3.2121188E-03    4.1851710E-01   -4.1851710E-01
 3.2300    3.1589678E-03    4.1415232E-01   -4.1415232E-01
 3.2400    3.1052430E-03    4.0963351E-01   -4.0963351E-01
 3.2500    3.0488069E-03    4.0467513E-01   -4.0467513E-01
 3.2600    2.9904704E-03    3.9937840E-01   -3.9937840E-01
 3.2700    2.9332664E-03    3.9414577E-01   -3.9414577E-01
 3.2800    2.8801752E-03    3.8938252E-01   -3.8938252E-01
 3.2900    2.8315070E-03    3.8514060E-01   -3.8514060E-01
 3.3000    2.7838432E-03    3.8096275E-01   -3.8096275E-01
 3.3100    2.7317498E-03    3.7610298E-01   -3.7610298E-01
 3.3200    2.6713682E-03    3.7001539E-01   -3.7001539E-01
 3.3300    2.6032363E-03    3.6275376E-01   -3.6275376E-01
 3.3400    2.5321124E-03    3.5496520E-01   -3.5496520E-01
 3.3500    2.4639560E-03    3.4748209E-01   -3.4748209E-01
 3.3600    2.4024579E-03    3.4083501E-01   -3.4083501E-01
